Shimmer_8F60	Shimmer_8F60	Shimmer_8F60	Shimmer_8F60	Shimmer_8F60	Shimmer_8F60	Shimmer_8F60	Shimmer_8F60	Shimmer_8F60	Shimmer_8F60	Shimmer_8F60	Shimmer_8F60	Shimmer_8F60	Shimmer_8F60	Shimmer_8F60	
ECG_LL-RA_24BIT	ECG_LL-RA_24BIT	System_Timestamp_Plot_Zeroed	ECG_LL-LA_24BIT	ECG_LL-LA_24BIT	Timestamp	Timestamp	ECG_Vx-RL_24BIT	ECG_Vx-RL_24BIT	ECG_LA-RA_24BIT	ECG_LA-RA_24BIT	ECG_EMG_Status1	ECG_EMG_Status1	ECG_EMG_Status2	ECG_EMG_Status2	
UNCAL	CAL	CAL	CAL	UNCAL	UNCAL	CAL	UNCAL	CAL	UNCAL	CAL	UNCAL	CAL	UNCAL	CAL	
no_units	mV	ms	mV	no_units	Ticks	ms	no_units	mV	no_units	mV	no_units	no_units	no_units	no_units	
1891.0	0.13638200001502038	1775597.65625	0.06310642517881694	875.0	1.4322956E7	1973101.9287109375	-17917.0	-1.2922032227758435	1016.0	0.07327557483620344	128.0	128.0	128.0	128.0	
1904.0	0.13731958118910567	1775601.5625	0.05690396510409894	789.0	1.4323084E7	1973105.8349609375	-17309.0	-1.2483532724801627	1115.0	0.08041561608500673	128.0	128.0	128.0	128.0	
2054.0	0.14813782550547427	1775605.46875	0.042696004235268134	592.0	1.4323212E7	1973109.7412109375	-17122.0	-1.2348665278990898	1462.0	0.10544182127020614	128.0	128.0	128.0	128.0	
2134.0	0.15390755580753754	1775609.375	0.042335396091389185	587.0	1.432334E7	1973113.6474609375	-16907.0	-1.2193603777122948	1547.0	0.11157215971614835	128.0	128.0	128.0	128.0	
2102.0	0.15159966368671224	1775613.28125	0.055461532528583116	769.0	1.4323468E7	1973117.5537109375	-17439.0	-1.2577290842210156	1333.0	0.09613813115812912	128.0	128.0	128.0	128.0	
2221.0	0.16018213751103133	1775617.1875	0.0743573992678403	1031.0	1.4323596E7	1973121.4599609375	-18069.0	-1.3031657103497638	1190.0	0.08582473824319103	128.0	128.0	128.0	128.0	
2222.0	0.16025425913980712	1775621.09375	0.07399679112396133	1026.0	1.4323724E7	1973125.3662109375	-17585.0	-1.2682588420222811	1196.0	0.08625746801584579	128.0	128.0	128.0	128.0	
2114.0	0.15246512323202172	1775625.0	0.05978883025513056	829.0	1.4323852E7	1973129.2724609375	-16851.0	-1.2153215665008505	1285.0	0.09267629297689116	128.0	128.0	128.0	128.0	
1736.0	0.1252031475547728	1775628.90625	0.025386813329078342	352.0	1.432398E7	1973133.1787109375	-16265.0	-1.173058292038237	1384.0	0.09981633422569446	128.0	128.0	128.0	128.0	
1392.0	0.10039330725590077	1775632.8125	-0.01629948810332872	-226.0	1.4324108E7	1973137.0849609375	-16128.0	-1.1631776288959539	1618.0	0.1166927953592295	128.0	128.0	128.0	128.0	
1732.0	0.12491466103966965	1775636.71875	-0.013414622952297076	-186.0	1.4324236E7	1973140.9912109375	-15052.0	-1.085574756333203	1918.0	0.13832928399196673	128.0	128.0	128.0	128.0	
3258.0	0.2349722665515264	1775640.625	0.02841592173766158	394.0	1.4324364E7	1973144.8974609375	-12731.0	-0.9181804559445925	2864.0	0.2065563448138648	128.0	128.0	128.0	128.0	
5812.0	0.4191709064448961	1775644.53125	0.11510611952616212	1596.0	1.4324492E7	1973148.8037109375	-9837.0	-0.709460462267454	4216.0	0.30406478691873395	128.0	128.0	128.0	128.0	
10812.0	0.77977905032385	1775648.4375	0.3748161047477847	5197.0	1.432462E7	1973152.7099609375	-5344.0	-0.38541798417782597	5615.0	0.40496294557606527	128.0	128.0	128.0	128.0	
17887.0	1.2900395739125698	1775652.34375	0.8307690418683341	11519.0	1.4324748E7	1973156.6162109375	-2489.0	-0.17951073402294326	6368.0	0.45927053204423574	128.0	128.0	128.0	128.0	
24136.0	1.7407276321324865	1775656.25	1.2798704242551833	17746.0	1.4324876E7	1973160.5224609375	-3055.0	-0.22033157591004085	6390.0	0.46085720787730317	128.0	128.0	128.0	128.0	
29458.0	2.124558940477245	1775660.15625	1.6902424919894328	23436.0	1.4325004E7	1973164.4287109375	-4589.0	-0.3309661544521039	6022.0	0.43431644848781215	128.0	128.0	128.0	128.0	
34343.0	2.476873097046983	1775664.0625	2.1592494439184007	29939.0	1.4325132E7	1973168.3349609375	-6725.0	-0.48501795351719307	4404.0	0.31762365312858265	128.0	128.0	128.0	128.0	
35795.0	2.5815937020294313	1775667.96875	2.4049678331575195	33346.0	1.432526E7	1973172.2412109375	-8272.0	-0.5965901132333414	2449.0	0.17662586887191165	128.0	128.0	128.0	128.0	
31759.0	2.29051080829034	1775671.875	2.2374292895113577	31023.0	1.4325388E7	1973176.1474609375	-8546.0	-0.616351439517908	736.0	0.05308151877898202	128.0	128.0	128.0	128.0	
21793.0	1.5717466559108086	1775675.78125	1.5949698203766132	22115.0	1.4325516E7	1973180.0537109375	-16162.0	-1.1656297642743307	-322.0	-0.023223164465804635	128.0	128.0	128.0	128.0	
15074.0	1.0871614321662704	1775679.6875	1.1267562063641796	15623.0	1.4325644E7	1973183.9599609375	-20328.0	-1.466088469754275	-549.0	-0.03959477419790914	128.0	128.0	128.0	128.0	
4559.0	0.32880250558883023	1775683.59375	0.4456395442056113	6179.0	1.4325772E7	1973187.8662109375	-31304.0	-2.257695467197355	-1620.0	-0.11683703861678107	128.0	128.0	128.0	128.0	
2294.0	0.16544701641166407	1775687.5	0.20230116871609316	2805.0	1.43259E7	1973191.7724609375	-29126.0	-2.1006145597236827	-511.0	-0.036854152304429094	128.0	128.0	128.0	128.0	
1094.0	0.07890106188071512	1775691.40625	0.02618015124561205	363.0	1.4326028E7	1973195.6787109375	-25057.0	-1.8071516522349897	731.0	0.05272091063510307	128.0	128.0	128.0	128.0	
1102.0	0.07947803491092145	1775695.3125	-0.01997769117089404	-277.0	1.4326156E7	1973199.5849609375	-22515.0	-1.6238184718869295	1379.0	0.0994557260818155	128.0	128.0	128.0	128.0	
2281.0	0.1645094352375788	1775699.21875	0.05892337070982108	817.0	1.4326284E7	1973203.4912109375	-20509.0	-1.4791424845626933	1464.0	0.10558606452775772	128.0	128.0	128.0	128.0	
3633.0	0.2620178773424479	1775703.125	0.15534998838305333	2154.0	1.4326412E7	1973207.3974609375	-18674.0	-1.3467992957591173	1479.0	0.10666788895939458	128.0	128.0	128.0	128.0	
4509.0	0.3251964241500407	1775707.03125	0.1998490333377163	2771.0	1.432654E7	1973211.3037109375	-17309.0	-1.2483532724801627	1738.0	0.12534739081232438	128.0	128.0	128.0	128.0	
4470.0	0.32238368062778483	1775710.9375	0.19912781704995836	2761.0	1.4326668E7	1973215.2099609375	-16621.0	-1.1987335918824187	1709.0	0.12325586357782646	128.0	128.0	128.0	128.0	
4437.0	0.3200036668781837	1775714.84375	0.19047322159686345	2641.0	1.4326796E7	1973219.1162109375	-16337.0	-1.1782510493100942	1796.0	0.12953044528132027	128.0	128.0	128.0	128.0	
4085.0	0.2946168535491054	1775718.75	0.17814042307620326	2470.0	1.4326924E7	1973223.0224609375	-16256.0	-1.172409197379255	1615.0	0.11647643047290213	128.0	128.0	128.0	128.0	
3996.0	0.28819802858806	1775722.65625	0.15917243470817027	2207.0	1.4327052E7	1973226.9287109375	-15923.0	-1.1483926949969168	1789.0	0.1290255938798897	128.0	128.0	128.0	128.0	
3932.0	0.2835822443464094	1775726.5625	0.14849843364935322	2059.0	1.432718E7	1973230.8349609375	-15278.0	-1.1018742444365317	1873.0	0.13508381069705616	128.0	128.0	128.0	128.0	
3982.0	0.28718832578519893	1775730.46875	0.1462626631573037	2028.0	1.4327308E7	1973234.7412109375	-15155.0	-1.0930032840971093	1954.0	0.14092566262789522	128.0	128.0	128.0	128.0	
3961.0	0.2856737715809073	1775734.375	0.1603263807685829	2223.0	1.4327436E7	1973238.6474609375	-15603.0	-1.1253137737886636	1738.0	0.12534739081232438	128.0	128.0	128.0	128.0	
3984.0	0.2873325690427505	1775738.28125	0.1653027731541125	2292.0	1.4327564E7	1973242.5537109375	-15471.0	-1.1157937187902593	1692.0	0.12202979588863802	128.0	128.0	128.0	128.0	
4077.0	0.29403988051889907	1775742.1875	0.1606148672836861	2227.0	1.4327692E7	1973246.4599609375	-14979.0	-1.0803098774325701	1850.0	0.13342501323521297	128.0	128.0	128.0	128.0	
4104.0	0.2959871644958454	1775746.09375	0.14900328505078375	2066.0	1.432782E7	1973250.3662109375	-14106.0	-1.0173476955113048	2038.0	0.14698387944506164	128.0	128.0	128.0	128.0	
4416.0	0.3184891126738921	1775750.0	0.16025425913980715	2222.0	1.4327948E7	1973254.2724609375	-14452.0	-1.0423017790677285	2194.0	0.15823485353408498	128.0	128.0	128.0	128.0	
4488.0	0.32368186994574905	1775753.90625	0.1752555579251716	2430.0	1.4328076E7	1973258.1787109375	-14966.0	-1.0793722962584849	2058.0	0.14842631202057743	128.0	128.0	128.0	128.0	
4455.0	0.321301856196148	1775757.8125	0.1849198561811276	2564.0	1.4328204E7	1973262.0849609375	-15001.0	-1.0818965532656377	1891.0	0.13638200001502038	128.0	128.0	128.0	128.0	
4409.0	0.3179842612724616	1775761.71875	0.17770769330354852	2464.0	1.4328332E7	1973265.9912109375	-14435.0	-1.04107571137854	1945.0	0.14027656796891308	128.0	128.0	128.0	128.0	
4458.0	0.32151822108247535	1775765.625	0.16696157061595568	2315.0	1.432846E7	1973269.8974609375	-13860.0	-0.9996057748324604	2143.0	0.15455665046651967	128.0	128.0	128.0	128.0	
4618.0	0.3330576816866019	1775769.53125	0.16566338129799146	2297.0	1.4328588E7	1973273.8037109375	-13727.0	-0.9900135982052801	2321.0	0.16739430038861042	128.0	128.0	128.0	128.0	
4687.0	0.33803407407213143	1775773.4375	0.18290045057540544	2536.0	1.4328716E7	1973277.7099609375	-14281.0	-1.0299689805470682	2151.0	0.155133623496726	128.0	128.0	128.0	128.0	
4820.0	0.3476262506993116	1775777.34375	0.19523324909606565	2707.0	1.4328844E7	1973281.6162109375	-14466.0	-1.0433114818705895	2113.0	0.15239300160324593	128.0	128.0	128.0	128.0	
4892.0	0.35281900797116855	1775781.25	0.19645931678525413	2724.0	1.4328972E7	1973285.5224609375	-13961.0	-1.0068900593388153	2168.0	0.15635969118591442	128.0	128.0	128.0	128.0	
4868.0	0.35108808888054954	1775785.15625	0.18427076152214544	2555.0	1.43291E7	1973289.4287109375	-13306.0	-0.9596503924906722	2313.0	0.1668173273584041	128.0	128.0	128.0	128.0	
5115.0	0.3689021311881699	1775789.0625	0.18585743735521287	2577.0	1.4329228E7	1973293.3349609375	-13269.0	-0.956981892225968	2538.0	0.18304469383295702	128.0	128.0	128.0	128.0	
5188.0	0.3741670100888026	1775792.96875	0.20136358754200787	2792.0	1.4329356E7	1973297.2412109375	-13684.0	-0.9869123681679212	2396.0	0.17280342254679473	128.0	128.0	128.0	128.0	
5293.0	0.38173978111026063	1775796.875	0.2176630756453366	3018.0	1.4329484E7	1973301.1474609375	-14056.0	-1.0137416140725153	2275.0	0.16407670546492403	128.0	128.0	128.0	128.0	
5363.0	0.38678829512456603	1775800.78125	0.2145618456079776	2975.0	1.4329612E7	1973305.0537109375	-13542.0	-0.9766710968817589	2388.0	0.17222644951658841	128.0	128.0	128.0	128.0	
5373.0	0.3875095114123239	1775804.6875	0.20561876363977954	2851.0	1.432974E7	1973308.9599609375	-12684.0	-0.9147907393921304	2522.0	0.18189074777254438	128.0	128.0	128.0	128.0	
5496.0	0.3963804717517462	1775808.59375	0.20554664201100376	2850.0	1.4329868E7	1973312.8662109375	-12557.0	-0.9056312925376049	2646.0	0.19083382974074242	128.0	128.0	128.0	128.0	
5621.0	0.40539567534872	1775812.5	0.22480311689413987	3117.0	1.4329996E7	1973316.7724609375	-12962.0	-0.9348405521918002	2504.0	0.18059255845458014	128.0	128.0	128.0	128.0	
5788.0	0.41743998735427706	1775816.40625	0.23828986147521275	3304.0	1.4330124E7	1973320.6787109375	-13384.0	-0.9652758795351839	2484.0	0.17915012587906431	128.0	128.0	128.0	128.0	
5803.0	0.41852181178591397	1775820.3125	0.23562136121050853	3267.0	1.4330252E7	1973324.5849609375	-12623.0	-0.9103913200368071	2536.0	0.18290045057540544	128.0	128.0	128.0	128.0	
5856.0	0.4223442581110309	1775824.21875	0.22855344159048102	3169.0	1.433038E7	1973328.4912109375	-11837.0	-0.8537037198190356	2687.0	0.19379081652054986	128.0	128.0	128.0	128.0	
5987.0	0.43179219148065945	1775828.125	0.2293467795070147	3180.0	1.4330508E7	1973332.3974609375	-11615.0	-0.83769271823081	2807.0	0.20244541197364474	128.0	128.0	128.0	128.0	
6111.0	0.4407352734488575	1775832.03125	0.23619833424071482	3275.0	1.4330636E7	1973336.3037109375	-11877.0	-0.8565885849700672	2836.0	0.20453693920814267	128.0	128.0	128.0	128.0	
6229.0	0.44924562564440085	1775835.9375	0.25963786359284685	3600.0	1.4330764E7	1973340.2099609375	-12267.0	-0.8847160201926256	2629.0	0.189607762051554	128.0	128.0	128.0	128.0	
6303.0	0.45458262617380935	1775839.84375	0.26699426972797746	3702.0	1.4330892E7	1973344.1162109375	-11866.0	-0.8557952470535335	2601.0	0.18758835644583186	128.0	128.0	128.0	128.0	
6514.0	0.4698002898455012	1775843.75	0.2605754447669321	3613.0	1.433102E7	1973348.0224609375	-11315.0	-0.8160562295980728	2901.0	0.2092248450785691	128.0	128.0	128.0	128.0	
6551.0	0.4724687901102055	1775847.65625	0.2491802274203572	3455.0	1.4331148E7	1973351.9287109375	-10491.0	-0.7566280074868211	3096.0	0.22328856268984829	128.0	128.0	128.0	128.0	
6726.0	0.48509007514596886	1775851.5625	0.264758499235928	3671.0	1.4331276E7	1973355.8349609375	-10609.0	-0.7651383596823644	3055.0	0.22033157591004085	128.0	128.0	128.0	128.0	
6918.0	0.49893742787092066	1775855.46875	0.28444770389171886	3944.0	1.4331404E7	1973359.7412109375	-10958.0	-0.7903088081251155	2974.0	0.2144897239792018	128.0	128.0	128.0	128.0	
7003.0	0.5050677663168629	1775859.375	0.2923089614282801	4053.0	1.4331532E7	1973363.6474609375	-10792.0	-0.7783366177483342	2950.0	0.21275880488858281	128.0	128.0	128.0	128.0	
7149.0	0.5155975241181283	1775863.28125	0.2809137440817051	3895.0	1.433166E7	1973367.5537109375	-9814.0	-0.7078016648056108	3254.0	0.23468378003642323	128.0	128.0	128.0	128.0	
7309.0	0.5271369847222549	1775867.1875	0.2786779735896556	3864.0	1.4331788E7	1973371.4599609375	-9411.0	-0.6787366484089671	3445.0	0.24845901113259927	128.0	128.0	128.0	128.0	
7474.0	0.5390370534702603	1775871.09375	0.2900731909362305	4022.0	1.4331916E7	1973375.3662109375	-9297.0	-0.6705147827285269	3452.0	0.2489638625340298	128.0	128.0	128.0	128.0	
7691.0	0.5546874469146069	1775875.0	0.3086805711603845	4280.0	1.4332044E7	1973379.2724609375	-9600.0	-0.6923676362475916	3411.0	0.2460068757542224	128.0	128.0	128.0	128.0	
7824.0	0.5642796235417872	1775878.90625	0.31488303123510264	4366.0	1.4332172E7	1973383.1787109375	-9471.0	-0.6830639461355146	3458.0	0.24939659230668454	128.0	128.0	128.0	128.0	
7927.0	0.5717081513056936	1775882.8125	0.3125751391142773	4334.0	1.43323E7	1973387.0849609375	-8631.0	-0.6224817779638503	3593.0	0.2591330121914163	128.0	128.0	128.0	128.0	
8214.0	0.5924070587643455	1775886.71875	0.31106058490998567	4313.0	1.4332428E7	1973390.9912109375	-8232.0	-0.5937052480823097	3901.0	0.28134647385435985	128.0	128.0	128.0	128.0	
8480.0	0.6115914120187059	1775890.625	0.32930735699026076	4566.0	1.4332556E7	1973394.8974609375	-8346.0	-0.6019271137627499	3914.0	0.28228405502844517	128.0	128.0	128.0	128.0	
8587.0	0.6193084262977155	1775894.53125	0.34928504816115485	4843.0	1.4332684E7	1973398.8037109375	-8790.0	-0.6339491169392011	3744.0	0.2700233781365607	128.0	128.0	128.0	128.0	
8623.0	0.621904804933644	1775898.4375	0.35209779168341065	4882.0	1.4332812E7	1973402.7099609375	-8594.0	-0.6198132776991461	3741.0	0.2698070132502333	128.0	128.0	128.0	128.0	
8769.0	0.6324345627349094	1775902.34375	0.34849171024462106	4832.0	1.433294E7	1973406.6162109375	-8047.0	-0.5803627467587885	3937.0	0.28394285249028833	128.0	128.0	128.0	128.0	
8941.0	0.6448394828843454	1775906.25	0.3539008324028054	4907.0	1.4333068E7	1973410.5224609375	-7782.0	-0.5612505151332039	4034.0	0.29093865048154005	128.0	128.0	128.0	128.0	
9100.0	0.6563068218596961	1775910.15625	0.35779540035669805	4961.0	1.4333196E7	1973414.4287109375	-7944.0	-0.5729342189948821	4139.0	0.2985114215029981	128.0	128.0	128.0	128.0	
9216.0	0.664672930797688	1775914.0625	0.37993674039086595	5268.0	1.4333324E7	1973418.3349609375	-8484.0	-0.6118798985338091	3948.0	0.284736190406822	128.0	128.0	128.0	128.0	
9335.0	0.6732554046220071	1775917.96875	0.40352051300054953	5595.0	1.4333452E7	1973422.2412109375	-8837.0	-0.6373388334916632	3740.0	0.26973489162145753	128.0	128.0	128.0	128.0	
9329.0	0.6728226748493523	1775921.875	0.4030877832278948	5589.0	1.433358E7	1973426.1474609375	-8710.0	-0.6281793866371378	3740.0	0.26973489162145753	128.0	128.0	128.0	128.0	
9347.0	0.6741208641673165	1775925.78125	0.3947937959186788	5474.0	1.4333708E7	1973430.0537109375	-8187.0	-0.5904597747873992	3873.0	0.27932706824863773	128.0	128.0	128.0	128.0	
9379.0	0.6764287562881418	1775929.6875	0.40265505345524	5583.0	1.4333836E7	1973433.9599609375	-8575.0	-0.6184429667524061	3796.0	0.2737737028329018	128.0	128.0	128.0	128.0	
9468.0	0.6828475812491872	1775933.59375	0.42977278587493734	5959.0	1.4333964E7	1973437.8662109375	-9637.0	-0.6950361365122958	3509.0	0.2530747953742499	128.0	128.0	128.0	128.0	
9403.0	0.6781596753787608	1775937.5	0.4454231793192839	6176.0	1.4334092E7	1973441.7724609375	-10112.0	-0.7292939101807965	3227.0	0.23273649605947688	128.0	128.0	128.0	128.0	
9316.0	0.6718850936752669	1775941.40625	0.4374176785251711	6065.0	1.433422E7	1973445.6787109375	-10494.0	-0.7568443723731485	3251.0	0.23446741515009586	128.0	128.0	128.0	128.0	
9085.0	0.6552249974280593	1775945.3125	0.4211903120506182	5840.0	1.4334348E7	1973449.5849609375	-10289.0	-0.7420594384741114	3245.0	0.2340346853774411	128.0	128.0	128.0	128.0	
8844.0	0.6378436848930937	1775949.21875	0.4131848112565054	5729.0	1.4334476E7	1973453.4912109375	-11062.0	-0.7978094575177977	3115.0	0.22465887363658832	128.0	128.0	128.0	128.0	
8630.0	0.6224096563350745	1775953.125	0.41671877106651917	5778.0	1.4334604E7	1973457.3974609375	-12288.0	-0.8862305743969172	2852.0	0.20569088526855533	128.0	128.0	128.0	128.0	
8194.0	0.5909646261888297	1775957.03125	0.4127520814838507	5723.0	1.4334732E7	1973461.3037109375	-13157.0	-0.9489042698030794	2471.0	0.17821254470497905	128.0	128.0	128.0	128.0	
7720.0	0.5567789741491049	1775960.9375	0.38585071395048076	5350.0	1.433486E7	1973465.2099609375	-13215.0	-0.9530873242720753	2370.0	0.17092826019862417	128.0	128.0	128.0	128.0	
7267.0	0.5241078763136716	1775964.84375	0.35238627819851376	4886.0	1.4334988E7	1973469.1162109375	-13065.0	-0.9422690799557066	2381.0	0.17172159811515786	128.0	128.0	128.0	128.0	
6889.0	0.49684590063642275	1775968.75	0.3336346547168082	4626.0	1.4335116E7	1973473.0224609375	-13846.0	-0.9985960720295992	2263.0	0.16321124591961456	128.0	128.0	128.0	128.0	
6501.0	0.46886270867141594	1775972.65625	0.32757643789964175	4542.0	1.4335244E7	1973476.9287109375	-14706.0	-1.0606206727767793	1959.0	0.14128627077177416	128.0	128.0	128.0	128.0	
6173.0	0.44520681443295657	1775976.5625	0.32144609945369956	4457.0	1.4335372E7	1973480.8349609375	-15477.0	-1.116226448562914	1716.0	0.12376071497925699	128.0	128.0	128.0	128.0	
5736.0	0.41368966265793594	1775980.46875	0.2939677588901232	4076.0	1.43355E7	1973484.7412109375	-15252.0	-1.0999990820883612	1660.0	0.1197219037678127	128.0	128.0	128.0	128.0	
5640.0	0.40676598629546007	1775984.375	0.2808416224529293	3894.0	1.4335628E7	1973488.6474609375	-15074.0	-1.0871614321662704	1746.0	0.12592436384253072	128.0	128.0	128.0	128.0	
5384.0	0.3883028493288576	1775988.28125	0.2527863088591467	3505.0	1.4335756E7	1973492.5537109375	-15033.0	-1.084204445386463	1879.0	0.1355165404697109	128.0	128.0	128.0	128.0	
5118.0	0.36911849607449726	1775992.1875	0.2467280920419803	3421.0	1.4335884E7	1973496.4599609375	-15585.0	-1.1240155844706994	1697.0	0.12239040403251697	128.0	128.0	128.0	128.0	
4947.0	0.35678569755383704	1775996.09375	0.2508390248822004	3478.0	1.4336012E7	1973500.3662109375	-16581.0	-1.195848726731387	1469.0	0.10594667267163667	128.0	128.0	128.0	128.0	
4744.0	0.3421450069123515	1776000.0	0.2434826187470697	3376.0	1.433614E7	1973504.2724609375	-16367.0	-1.1804146981733679	1368.0	0.0986623881652818	128.0	128.0	128.0	128.0	
4596.0	0.33147100585353445	1776003.90625	0.2246588736365883	3115.0	1.4336268E7	1973508.1787109375	-16125.0	-1.1629612640096265	1481.0	0.10681213221694616	128.0	128.0	128.0	128.0	
4464.0	0.3219509508551301	1776007.8125	0.2129751697749102	2953.0	1.4336396E7	1973512.0849609375	-15679.0	-1.1307950175756238	1511.0	0.10897578108021988	128.0	128.0	128.0	128.0	
4468.0	0.32223943737023325	1776011.71875	0.21997096776616193	3050.0	1.4336524E7	1973515.9912109375	-16326.0	-1.1774577113935605	1418.0	0.10226846960407134	128.0	128.0	128.0	128.0	
4484.0	0.3233933834306459	1776015.625	0.23230376628682212	3221.0	1.4336652E7	1973519.8974609375	-16942.0	-1.2218846347194476	1263.0	0.09108961714382377	128.0	128.0	128.0	128.0	
4411.0	0.3181285045300132	1776019.53125	0.22891404973435997	3174.0	1.433678E7	1973523.8037109375	-16959.0	-1.223110702408636	1237.0	0.08921445479565321	128.0	128.0	128.0	128.0	
4230.0	0.305074489721595	1776023.4375	0.21398487257777124	2967.0	1.4336908E7	1973527.7099609375	-16210.0	-1.1690916024555686	1263.0	0.09108961714382377	128.0	128.0	128.0	128.0	
4327.0	0.31207028771284673	1776027.34375	0.20186843894343842	2799.0	1.4337036E7	1973531.6162109375	-16012.0	-1.154811519957962	1528.0	0.11020184876940832	128.0	128.0	128.0	128.0	
4276.0	0.3083920846452814	1776031.25	0.20864787204836271	2893.0	1.4337164E7	1973535.5224609375	-16356.0	-1.1796213602568342	1383.0	0.09974421259691867	128.0	128.0	128.0	128.0	
4298.0	0.3099787604783488	1776035.15625	0.22776010367394733	3158.0	1.4337292E7	1973539.4287109375	-17107.0	-1.233784703467453	1140.0	0.0822186568044015	128.0	128.0	128.0	128.0	
4226.0	0.30478600320649185	1776039.0625	0.23064496882497892	3198.0	1.433742E7	1973543.3349609375	-16663.0	-1.2017627002910019	1028.0	0.07414103438151293	128.0	128.0	128.0	128.0	
4291.0	0.3094739090769183	1776042.96875	0.2186727784481977	3032.0	1.4337548E7	1973547.2412109375	-16266.0	-1.1731304136670129	1259.0	0.0908011306287206	128.0	128.0	128.0	128.0	
4403.0	0.31755153149980686	1776046.875	0.21398487257777127	2967.0	1.4337676E7	1973551.1474609375	-15918.0	-1.1480320868530378	1436.0	0.10356665892203558	128.0	128.0	128.0	128.0	
4467.0	0.32216731574145746	1776050.78125	0.2201873326524893	3053.0	1.4337804E7	1973555.0537109375	-16420.0	-1.1842371444984847	1414.0	0.10197998308896818	128.0	128.0	128.0	128.0	
4496.0	0.32425884297595536	1776054.6875	0.23648682075581798	3279.0	1.4337932E7	1973558.9599609375	-16885.0	-1.2177737018792274	1217.0	0.08777202222013739	128.0	128.0	128.0	128.0	
4408.0	0.3179121396436858	1776058.59375	0.23223164465804635	3220.0	1.433806E7	1973562.8662109375	-16642.0	-1.2002481460867103	1188.0	0.08568049498563945	128.0	128.0	128.0	128.0	
4433.0	0.31971518036308055	1776062.5	0.22840919833292941	3167.0	1.4338188E7	1973566.7724609375	-16521.0	-1.1915214290048397	1266.0	0.09130598203015114	128.0	128.0	128.0	128.0	
4495.0	0.3241867213471796	1776066.40625	0.21759095401656078	3017.0	1.4338316E7	1973570.6787109375	-15829.0	-1.1416132618919923	1478.0	0.10659576733061879	128.0	128.0	128.0	128.0	
4531.0	0.32678309998310806	1776070.3125	0.21672549447125133	3005.0	1.4338444E7	1973574.5849609375	-15962.0	-1.1512054385191726	1526.0	0.11005760551185674	128.0	128.0	128.0	128.0	
4554.0	0.3284418974449512	1776074.21875	0.23194315814294314	3216.0	1.4338572E7	1973578.4912109375	-16554.0	-1.1939014427544408	1338.0	0.09649873930200807	128.0	128.0	128.0	128.0	
4509.0	0.3251964241500407	1776078.125	0.24348261874706972	3376.0	1.43387E7	1973582.3974609375	-16964.0	-1.223471310552515	1133.0	0.08171380540297096	128.0	128.0	128.0	128.0	
4497.0	0.32433096460473115	1776082.03125	0.23100557696885787	3203.0	1.4338828E7	1973586.3037109375	-16312.0	-1.1764480085906994	1294.0	0.09332538763587328	128.0	128.0	128.0	128.0	
4464.0	0.3219509508551301	1776085.9375	0.21730246750145765	3013.0	1.4338956E7	1973590.2099609375	-15956.0	-1.1507727087465178	1451.0	0.10464848335367244	128.0	128.0	128.0	128.0	
4540.0	0.32743219464209017	1776089.84375	0.21730246750145765	3013.0	1.4339084E7	1973594.1162109375	-15936.0	-1.149330276171002	1527.0	0.11012972714063253	128.0	128.0	128.0	128.0	
4493.0	0.324042478089628	1776093.75	0.2307892120825305	3200.0	1.4339212E7	1973598.0224609375	-16794.0	-1.2112106336606305	1293.0	0.09325326600709749	128.0	128.0	128.0	128.0	
4422.0	0.31892184244654687	1776097.65625	0.24023714545215913	3331.0	1.433934E7	1973601.9287109375	-16845.0	-1.2148888367281958	1091.0	0.07868469699438775	128.0	128.0	128.0	128.0	
4394.0	0.31690243684082475	1776101.5625	0.23064496882497898	3198.0	1.4339468E7	1973605.8349609375	-16451.0	-1.1864729149905342	1196.0	0.08625746801584579	128.0	128.0	128.0	128.0	
4373.0	0.3153878826365331	1776105.46875	0.22191825174310825	3077.0	1.4339596E7	1973609.7412109375	-15937.0	-1.1494023977997778	1296.0	0.09346963089342486	128.0	128.0	128.0	128.0	
4404.0	0.31762365312858265	1776109.375	0.21903338659207666	3037.0	1.4339724E7	1973613.6474609375	-15932.0	-1.1490417896558989	1367.0	0.098590266536506	128.0	128.0	128.0	128.0	
4539.0	0.3273600730133144	1776113.28125	0.23439529352132005	3250.0	1.4339852E7	1973617.5537109375	-16833.0	-1.2140233771828863	1289.0	0.09296477949199433	128.0	128.0	128.0	128.0	
4393.0	0.31683031521204896	1776117.1875	0.24247291594420867	3362.0	1.433998E7	1973621.4599609375	-16873.0	-1.216908242333918	1031.0	0.07435739926784031	128.0	128.0	128.0	128.0	
4467.0	0.32216731574145746	1776121.09375	0.23316922583213162	3233.0	1.4340108E7	1973625.3662109375	-16470.0	-1.1878432259372742	1234.0	0.08899808990932584	128.0	128.0	128.0	128.0	
4414.0	0.31834486941634055	1776125.0	0.22357704920495144	3100.0	1.4340236E7	1973629.2724609375	-16120.0	-1.1626006558657476	1314.0	0.0947678202113891	128.0	128.0	128.0	128.0	
4476.0	0.32281641040043957	1776128.90625	0.2230000761747451	3092.0	1.4340364E7	1973633.1787109375	-16397.0	-1.1825783470366416	1384.0	0.09981633422569446	128.0	128.0	128.0	128.0	
4506.0	0.3249800592637133	1776132.8125	0.2390831993917465	3315.0	1.4340492E7	1973637.0849609375	-16742.0	-1.2074603089642895	1191.0	0.08589685987196682	128.0	128.0	128.0	128.0	
4516.0	0.3257012755514712	1776136.71875	0.24485292969380973	3395.0	1.434062E7	1973640.9912109375	-17219.0	-1.2418623258903416	1121.0	0.08084834585766147	128.0	128.0	128.0	128.0	
4461.0	0.3217345859688027	1776140.625	0.23836198310398857	3305.0	1.4340748E7	1973644.8974609375	-16834.0	-1.2140954988116621	1156.0	0.08337260286481415	128.0	128.0	128.0	128.0	
4533.0	0.32692734324065964	1776144.53125	0.22314431943229668	3094.0	1.4340876E7	1973648.8037109375	-16528.0	-1.1920262804062702	1439.0	0.10378302380836295	128.0	128.0	128.0	128.0	
4496.0	0.32425884297595536	1776148.4375	0.21708610261513026	3010.0	1.4341004E7	1973652.7099609375	-16344.0	-1.1787559007115247	1486.0	0.10717274036082511	128.0	128.0	128.0	128.0	
4373.0	0.3153878826365331	1776152.34375	0.22516372503801885	3122.0	1.4341132E7	1973656.6162109375	-16929.0	-1.2209470535453624	1251.0	0.09022415759851428	128.0	128.0	128.0	128.0	
4223.0	0.3045696383201645	1776156.25	0.2418238212852265	3353.0	1.434126E7	1973660.5224609375	-17524.0	-1.2638594226669577	870.0	0.06274581703493799	128.0	128.0	128.0	128.0	
4102.0	0.2958429212382938	1776160.15625	0.23973229405072857	3324.0	1.4341388E7	1973664.4287109375	-17241.0	-1.243449001723409	778.0	0.05611062718756523	128.0	128.0	128.0	128.0	
3983.0	0.2872604474139747	1776164.0625	0.22451463037903674	3113.0	1.4341516E7	1973668.3349609375	-16613.0	-1.1981566188522124	870.0	0.06274581703493799	128.0	128.0	128.0	128.0	
4145.0	0.2989441512756528	1776167.96875	0.22076430568269562	3061.0	1.4341644E7	1973672.2412109375	-16428.0	-1.184814117528691	1084.0	0.07817984559295721	128.0	128.0	128.0	128.0	
4377.0	0.31567636915163627	1776171.875	0.23453953677887163	3252.0	1.4341772E7	1973676.1474609375	-17012.0	-1.226933148733753	1125.0	0.08113683237276463	128.0	128.0	128.0	128.0	
4516.0	0.3257012755514712	1776175.78125	0.25184872768506145	3492.0	1.43419E7	1973680.0537109375	-17653.0	-1.2731631127790348	1024.0	0.07385254786640977	128.0	128.0	128.0	128.0	
4479.0	0.32303277528676694	1776179.6875	0.25394025491955935	3521.0	1.4342028E7	1973683.9599609375	-17474.0	-1.2602533412281682	958.0	0.06909252036720757	128.0	128.0	128.0	128.0	
4454.0	0.3212297345673722	1776183.59375	0.2365589423845938	3280.0	1.4342156E7	1973687.8662109375	-16964.0	-1.223471310552515	1174.0	0.08467079218277838	128.0	128.0	128.0	128.0	
4489.0	0.32375399157452484	1776187.5	0.22574069806822517	3130.0	1.4342284E7	1973691.7724609375	-16658.0	-1.201402092147123	1359.0	0.09801329350629968	128.0	128.0	128.0	128.0	
4484.0	0.3233933834306459	1776191.40625	0.23843410473276433	3306.0	1.4342412E7	1973695.6787109375	-17392.0	-1.2543393676685535	1178.0	0.08495927869788154	128.0	128.0	128.0	128.0	
4581.0	0.3303891814218976	1776195.3125	0.2497572004505635	3463.0	1.434254E7	1973699.5849609375	-18030.0	-1.300352966827508	1118.0	0.0806319809713341	128.0	128.0	128.0	128.0	
4600.0	0.3317594923686376	1776199.21875	0.24355474037584546	3377.0	1.4342668E7	1973703.4912109375	-17624.0	-1.271071585544537	1223.0	0.08820475199279214	128.0	128.0	128.0	128.0	
4608.0	0.332336465398844	1776203.125	0.22747161715884417	3154.0	1.4342796E7	1973707.3974609375	-16896.0	-1.218567039795761	1454.0	0.10486484823999981	128.0	128.0	128.0	128.0	
4649.0	0.33529345217865136	1776207.03125	0.2236491708337272	3101.0	1.4342924E7	1973711.3037109375	-16834.0	-1.2140954988116621	1548.0	0.11164428134492414	128.0	128.0	128.0	128.0	
4703.0	0.33918802013254407	1776210.9375	0.23417892863499268	3247.0	1.4343052E7	1973715.2099609375	-17508.0	-1.262705476606545	1456.0	0.10500909149755139	128.0	128.0	128.0	128.0	
4651.0	0.33543769543620294	1776214.84375	0.2411026049974686	3343.0	1.434318E7	1973719.1162109375	-17708.0	-1.2771298023617033	1308.0	0.09433509043873435	128.0	128.0	128.0	128.0	
4544.0	0.3277206811571933	1776218.75	0.24766567321606556	3434.0	1.4343308E7	1973723.0224609375	-17811.0	-1.2845583301256098	1110.0	0.08005500794112777	128.0	128.0	128.0	128.0	
4303.0	0.3103393686222278	1776222.65625	0.22963526602211787	3184.0	1.4343436E7	1973726.9287109375	-17214.0	-1.2415017177464627	1119.0	0.08070410260010989	128.0	128.0	128.0	128.0	
4235.0	0.305435097865474	1776226.5625	0.2208364273114714	3062.0	1.4343564E7	1973730.8349609375	-16917.0	-1.2200815940000527	1173.0	0.0845986705540026	128.0	128.0	128.0	128.0	
4135.0	0.2982229349878949	1776230.46875	0.22530796829557043	3124.0	1.4343692E7	1973734.7412109375	-17109.0	-1.2339289467250045	1011.0	0.07291496669232449	128.0	128.0	128.0	128.0	
4091.0	0.2950495833217601	1776234.375	0.24103048336869282	3342.0	1.434382E7	1973738.6474609375	-17726.0	-1.2784279916796675	749.0	0.0540190999530673	128.0	128.0	128.0	128.0	
4097.0	0.29548231309441486	1776238.28125	0.24196806454277808	3355.0	1.4343948E7	1973742.5537109375	-17997.0	-1.2979729530779067	742.0	0.053514248551636764	128.0	128.0	128.0	128.0	
4078.0	0.29411200214767486	1776242.1875	0.22812071181782628	3163.0	1.4344076E7	1973746.4599609375	-17559.0	-1.2663836796741104	915.0	0.06599129032984857	128.0	128.0	128.0	128.0	
4145.0	0.2989441512756528	1776246.09375	0.21715822424390607	3011.0	1.4344204E7	1973750.3662109375	-17069.0	-1.231044081573973	1134.0	0.08178592703174675	128.0	128.0	128.0	128.0	
4169.0	0.3006750703662718	1776250.0	0.22328856268984826	3096.0	1.4344332E7	1973754.2724609375	-17249.0	-1.2440259747536153	1073.0	0.07738650767642352	128.0	128.0	128.0	128.0	
4175.0	0.3011078001389265	1776253.90625	0.2369916721572485	3286.0	1.434446E7	1973758.1787109375	-18137.0	-1.3080699811065175	889.0	0.06411612798167801	128.0	128.0	128.0	128.0	
4128.0	0.2977180835864644	1776257.8125	0.23951592916440123	3321.0	1.4344588E7	1973762.0849609375	-17929.0	-1.293068682321153	807.0	0.05820215442206317	128.0	128.0	128.0	128.0	
4086.0	0.2946889751778812	1776261.71875	0.2333134690896832	3235.0	1.4344716E7	1973765.9912109375	-17713.0	-1.2774904105055822	851.0	0.06137550608819796	128.0	128.0	128.0	128.0	
3980.0	0.28704408252764735	1776265.625	0.2241540222351578	3108.0	1.4344844E7	1973769.8974609375	-17097.0	-1.233063487179695	872.0	0.06289006029248957	128.0	128.0	128.0	128.0	
4182.0	0.3016126515403571	1776269.53125	0.22538008992434624	3125.0	1.4344972E7	1973773.8037109375	-17625.0	-1.2711437071733127	1057.0	0.07623256161601086	128.0	128.0	128.0	128.0	
4168.0	0.300602948737496	1776273.4375	0.24845901113259924	3445.0	1.43451E7	1973777.7099609375	-18153.0	-1.3092239271669301	723.0	0.05214393760489674	128.0	128.0	128.0	128.0	
4177.0	0.30125204339647815	1776277.34375	0.25177660605628566	3491.0	1.4345228E7	1973781.6162109375	-18072.0	-1.3033820752360912	686.0	0.04947543734019248	128.0	128.0	128.0	128.0	
4268.0	0.3078151116150751	1776281.25	0.24276140245931177	3366.0	1.4345356E7	1973785.5224609375	-17850.0	-1.2873710736478656	902.0	0.06505370915576329	128.0	128.0	128.0	128.0	
4315.0	0.31120482816753725	1776285.15625	0.23143830674151264	3209.0	1.4345484E7	1973789.4287109375	-17256.0	-1.2445308261550458	1106.0	0.07976652142602461	128.0	128.0	128.0	128.0	
4403.0	0.31755153149980686	1776289.0625	0.24023714545215913	3331.0	1.4345612E7	1973793.3349609375	-17461.0	-1.259315760054083	1072.0	0.07731438604764773	128.0	128.0	128.0	128.0	
4310.0	0.3108442200236583	1776292.96875	0.24449232154993078	3390.0	1.434574E7	1973797.2412109375	-17762.0	-1.281024370315596	920.0	0.06635189847372752	128.0	128.0	128.0	128.0	
4402.0	0.31747940987103107	1776296.875	0.2584839175324342	3584.0	1.4345868E7	1973801.1474609375	-18345.0	-1.323071279891882	818.0	0.05899549233859686	128.0	128.0	128.0	128.0	
4302.0	0.310267246993452	1776300.78125	0.2527141872303709	3504.0	1.4345996E7	1973805.0537109375	-18017.0	-1.2994153856534227	798.0	0.057553059763081046	128.0	128.0	128.0	128.0	
4294.0	0.30969027396324567	1776304.6875	0.238217739846437	3303.0	1.4346124E7	1973808.9599609375	-17234.0	-1.2429441503219785	991.0	0.07147253411680868	128.0	128.0	128.0	128.0	
4363.0	0.3146666663487752	1776308.59375	0.23223164465804635	3220.0	1.4346252E7	1973812.8662109375	-17477.0	-1.2604697061144956	1143.0	0.08243502169072887	128.0	128.0	128.0	128.0	
4288.0	0.3092575441905909	1776312.5	0.24175169965645077	3352.0	1.434638E7	1973816.7724609375	-17926.0	-1.2928523174348256	936.0	0.06750584453414017	128.0	128.0	128.0	128.0	
4341.0	0.31307999051570784	1776316.40625	0.2573299714720216	3568.0	1.4346508E7	1973820.6787109375	-18332.0	-1.3221336987177967	773.0	0.05575001904368628	128.0	128.0	128.0	128.0	
4265.0	0.3075987467287477	1776320.3125	0.24723294344341082	3428.0	1.4346636E7	1973824.5849609375	-18032.0	-1.3004972100850596	837.0	0.06036580328533689	128.0	128.0	128.0	128.0	
4173.0	0.30096355688137494	1776324.21875	0.23050072556742734	3196.0	1.4346764E7	1973828.4912109375	-17551.0	-1.265806706643904	977.0	0.07046283131394761	128.0	128.0	128.0	128.0	
4096.0	0.29541019146563907	1776328.125	0.22675040087108622	3144.0	1.4346892E7	1973832.3974609375	-17465.0	-1.2596042465691861	952.0	0.06865979059455284	128.0	128.0	128.0	128.0	
4230.0	0.305074489721595	1776332.03125	0.24341049711829388	3375.0	1.434702E7	1973836.3037109375	-18053.0	-1.3020117642893512	855.0	0.061663992603301125	128.0	128.0	128.0	128.0	
4236.0	0.3055072194942498	1776335.9375	0.2553105658662994	3540.0	1.4347148E7	1973840.2099609375	-18559.0	-1.3385053084499012	696.0	0.05019665362795039	128.0	128.0	128.0	128.0	
4175.0	0.3011078001389265	1776339.84375	0.2503341734807698	3471.0	1.4347276E7	1973844.1162109375	-18116.0	-1.306555426902226	704.0	0.05077362665815671	128.0	128.0	128.0	128.0	
4189.0	0.30211750294178763	1776343.75	0.23987653730828018	3326.0	1.4347404E7	1973848.0224609375	-17508.0	-1.262705476606545	863.0	0.06224096563350745	128.0	128.0	128.0	128.0	
4240.0	0.30579570600935296	1776347.65625	0.23453953677887168	3252.0	1.4347532E7	1973851.9287109375	-17603.0	-1.2695570313402453	988.0	0.0712561692304813	128.0	128.0	128.0	128.0	
4201.0	0.3029829624870971	1776351.5625	0.2475935515872898	3433.0	1.434766E7	1973855.8349609375	-18215.0	-1.313695468151029	768.0	0.055389410899807326	128.0	128.0	128.0	128.0	
4211.0	0.303704178774855	1776355.46875	0.2619457557136721	3632.0	1.4347788E7	1973859.7412109375	-18689.0	-1.3478811201907541	579.0	0.04175842306118287	128.0	128.0	128.0	128.0	
4101.0	0.295770799609518	1776359.375	0.2553105658662994	3540.0	1.4347916E7	1973863.6474609375	-18204.0	-1.3129021302344954	561.0	0.04046023374321863	128.0	128.0	128.0	128.0	
4088.0	0.29483321843543275	1776363.28125	0.23958805079317702	3322.0	1.4348044E7	1973867.5537109375	-17632.0	-1.2716485585747432	766.0	0.055245167642255746	128.0	128.0	128.0	128.0	
4144.0	0.29887202964687704	1776367.1875	0.23706379378602432	3287.0	1.4348172E7	1973871.4599609375	-17905.0	-1.291337763230534	857.0	0.061808235860852705	128.0	128.0	128.0	128.0	
4146.0	0.2990162729044286	1776371.09375	0.24333837548951812	3374.0	1.43483E7	1973875.3662109375	-17972.0	-1.296169912358512	772.0	0.05567789741491049	128.0	128.0	128.0	128.0	
4253.0	0.30673328718343823	1776375.0	0.26216212059999955	3635.0	1.4348428E7	1973879.2724609375	-18757.0	-1.3527853909475078	618.0	0.04457116658343871	128.0	128.0	128.0	128.0	
4073.0	0.2937513940037959	1776378.90625	0.2599984717367258	3605.0	1.4348556E7	1973883.1787109375	-18489.0	-1.333456794435596	468.0	0.033752922267070086	128.0	128.0	128.0	128.0	
4140.0	0.2985835431317739	1776382.8125	0.25033417348076986	3471.0	1.4348684E7	1973887.0849609375	-18088.0	-1.3045360212965038	669.0	0.048249369651004036	128.0	128.0	128.0	128.0	
4191.0	0.3022617461993392	1776386.71875	0.2390831993917465	3315.0	1.4348812E7	1973890.9912109375	-17803.0	-1.2839813570954035	876.0	0.06317854680759273	128.0	128.0	128.0	128.0	
4221.0	0.3044253950626129	1776390.625	0.24831476787504767	3443.0	1.434894E7	1973894.8974609375	-18069.0	-1.3031657103497638	778.0	0.05611062718756523	128.0	128.0	128.0	128.0	
4314.0	0.31113270653876146	1776394.53125	0.2644700127208248	3667.0	1.4349068E7	1973898.8037109375	-18702.0	-1.3488187013648394	647.0	0.04666269381793664	128.0	128.0	128.0	128.0	
4473.0	0.3226000455141122	1776398.4375	0.2683645806747175	3721.0	1.4349196E7	1973902.7099609375	-18645.0	-1.3447077685246192	752.0	0.054235464839394676	128.0	128.0	128.0	128.0	
4554.0	0.3284418974449512	1776402.34375	0.2580511877597794	3578.0	1.4349324E7	1973906.6162109375	-17944.0	-1.2941505067527899	976.0	0.0703907096851718	128.0	128.0	128.0	128.0	
4804.0	0.34647230463889894	1776406.25	0.251992970942613	3494.0	1.4349452E7	1973910.5224609375	-17597.0	-1.2691243015675906	1310.0	0.09447933369628593	128.0	128.0	128.0	128.0	
5188.0	0.3741670100888026	1776410.15625	0.275071892150866	3814.0	1.434958E7	1973914.4287109375	-18002.0	-1.298333561221786	1374.0	0.09909511793793654	128.0	128.0	128.0	128.0	
5568.0	0.4015732290236031	1776414.0625	0.3122145309703983	4329.0	1.4349708E7	1973918.3349609375	-18497.0	-1.3340337674658023	1239.0	0.08935869805320479	128.0	128.0	128.0	128.0	
5581.0	0.4025108101976884	1776417.96875	0.31445030146244785	4360.0	1.4349836E7	1973922.2412109375	-18496.0	-1.3339616458370265	1221.0	0.08806050873524056	128.0	128.0	128.0	128.0	
5585.0	0.4027992967127916	1776421.875	0.30125204339647815	4177.0	1.4349964E7	1973926.1474609375	-18181.0	-1.3112433327726523	1408.0	0.10154725331631342	128.0	128.0	128.0	128.0	
5468.0	0.394361066146024	1776425.78125	0.2856016499521315	3960.0	1.4350092E7	1973930.0537109375	-17444.0	-1.2580896923648945	1508.0	0.10875941619389251	128.0	128.0	128.0	128.0	
5816.0	0.41945939295999923	1776429.6875	0.29403988051889907	4077.0	1.435022E7	1973933.9599609375	-18093.0	-1.3048966294403828	1739.0	0.1254195124411002	128.0	128.0	128.0	128.0	
5818.0	0.4196036362175508	1776433.59375	0.328874627217606	4560.0	1.4350348E7	1973937.8662109375	-18660.0	-1.3457895929562562	1258.0	0.09072900899994481	128.0	128.0	128.0	128.0	
5649.0	0.4074150809544422	1776437.5	0.3157484907804121	4378.0	1.4350476E7	1973941.7724609375	-18866.0	-1.3606466484840691	1271.0	0.09166659017403009	128.0	128.0	128.0	128.0	
5921.0	0.42703216398145727	1776441.40625	0.3313988842247587	4595.0	1.4350604E7	1973945.6787109375	-18314.0	-1.3208355093998325	1326.0	0.09563327975669858	128.0	128.0	128.0	128.0	
5909.0	0.4261667044361478	1776445.3125	0.33255283028517135	4611.0	1.4350732E7	1973949.5849609375	-18046.0	-1.3015069128879206	1298.0	0.09361387415097644	128.0	128.0	128.0	128.0	
6039.0	0.43554251617700057	1776449.21875	0.3234655050594217	4485.0	1.435086E7	1973953.4912109375	-18071.0	-1.3033099536073154	1554.0	0.11207701111757888	128.0	128.0	128.0	128.0	
5776.0	0.4165745278089676	1776453.125	0.3115654363114162	4320.0	1.4350988E7	1973957.3974609375	-18441.0	-1.329994956254358	1456.0	0.10500909149755139	128.0	128.0	128.0	128.0	
5431.0	0.3916925658813198	1776457.03125	0.29620352938217276	4107.0	1.4351116E7	1973961.3037109375	-18602.0	-1.3416065384872602	1324.0	0.095489036499147	128.0	128.0	128.0	128.0	
5233.0	0.3774124833837132	1776460.9375	0.26966276999268174	3739.0	1.4351244E7	1973965.2099609375	-18293.0	-1.319320955195541	1494.0	0.10774971339103144	128.0	128.0	128.0	128.0	
5050.0	0.3642142253177435	1776464.84375	0.25307479537424993	3509.0	1.4351372E7	1973969.1162109375	-17698.0	-1.2764085860739454	1541.0	0.1111394299434936	128.0	128.0	128.0	128.0	
5049.0	0.3641421036889677	1776468.75	0.2515602411699583	3488.0	1.43515E7	1973973.0224609375	-17999.0	-1.2981171963354583	1561.0	0.11258186251900942	128.0	128.0	128.0	128.0	
4725.0	0.3407746959656115	1776472.65625	0.2592772554489679	3595.0	1.4351628E7	1973976.9287109375	-18737.0	-1.351342958371992	1130.0	0.0814974405166436	128.0	128.0	128.0	128.0	
4723.0	0.3406304527080599	1776476.5625	0.2737015812041261	3795.0	1.4351756E7	1973980.8349609375	-18876.0	-1.361367864771827	928.0	0.06692887150393385	128.0	128.0	128.0	128.0	
4609.0	0.3324085870276198	1776480.46875	0.26483062086470377	3672.0	1.4351884E7	1973984.7412109375	-18512.0	-1.3351155918974391	937.0	0.06757796616291598	128.0	128.0	128.0	128.0	
4422.0	0.31892184244654687	1776484.375	0.2583396742748826	3582.0	1.4352012E7	1973988.6474609375	-18116.0	-1.306555426902226	840.0	0.060582168171664265	128.0	128.0	128.0	128.0	
4203.0	0.3031272057446487	1776488.28125	0.2534354035181288	3514.0	1.435214E7	1973992.5537109375	-18135.0	-1.307925737848966	689.0	0.04969180222651985	128.0	128.0	128.0	128.0	
3876.0	0.2795434331349651	1776492.1875	0.2514159979124067	3486.0	1.4352268E7	1973996.4599609375	-19045.0	-1.3735564200349355	390.0	0.02812743522255841	128.0	128.0	128.0	128.0	
3702.0	0.2669942697279775	1776496.09375	0.2514881195411825	3487.0	1.4352396E7	1974000.3662109375	-19153.0	-1.381345555942721	215.0	0.01550615018679502	128.0	128.0	128.0	128.0	
3693.0	0.2663451750689954	1776500.0	0.23958805079317702	3322.0	1.4352524E7	1974004.2724609375	-18851.0	-1.359564824052432	371.0	0.026757124275818382	128.0	128.0	128.0	128.0	
3741.0	0.2698070132502333	1776503.90625	0.22675040087108622	3144.0	1.4352652E7	1974008.1787109375	-18461.0	-1.3314373888298738	597.0	0.043056612379147104	128.0	128.0	128.0	128.0	
3834.0	0.2765143247263819	1776507.8125	0.22999587416599682	3189.0	1.435278E7	1974012.0849609375	-18266.0	-1.3173736712185946	645.0	0.04651845056038506	128.0	128.0	128.0	128.0	
3945.0	0.28451982552049465	1776511.71875	0.24607899738299815	3412.0	1.4352908E7	1974015.9912109375	-19238.0	-1.3874758943886631	533.0	0.03844082813749649	128.0	128.0	128.0	128.0	
3939.0	0.2840870957478399	1776515.625	0.25502207935119625	3536.0	1.4353036E7	1974019.8974609375	-19367.0	-1.3967795845007402	403.0	0.02906501639664369	128.0	128.0	128.0	128.0	
3894.0	0.2808416224529293	1776519.53125	0.24925234904913296	3456.0	1.4353164E7	1974023.8037109375	-18784.0	-1.3547326749244541	438.0	0.031589273403796365	128.0	128.0	128.0	128.0	
4000.0	0.28848651510316314	1776523.4375	0.2463674838981013	3416.0	1.4353292E7	1974027.7099609375	-18702.0	-1.3488187013648394	584.0	0.04211903120506182	128.0	128.0	128.0	128.0	
4039.0	0.291299258625419	1776527.34375	0.24297776734563917	3369.0	1.435342E7	1974031.6162109375	-18162.0	-1.3098730218259123	670.0	0.048321491279779825	128.0	128.0	128.0	128.0	
4154.0	0.29959324593463493	1776531.25	0.2568972416993668	3562.0	1.4353548E7	1974035.5224609375	-18716.0	-1.3498284041677004	592.0	0.04269600423526815	128.0	128.0	128.0	128.0	
4221.0	0.3044253950626129	1776535.15625	0.27348521631779865	3792.0	1.4353676E7	1974039.4287109375	-19339.0	-1.3947601788950181	429.0	0.030940178744814247	128.0	128.0	128.0	128.0	
4091.0	0.2950495833217601	1776539.0625	0.27384582446167766	3797.0	1.4353804E7	1974043.3349609375	-18779.0	-1.3543720667805752	294.0	0.02120375886008249	128.0	128.0	128.0	128.0	
4078.0	0.29411200214767486	1776542.96875	0.2574020931007973	3569.0	1.4353932E7	1974047.2412109375	-18471.0	-1.3321586051176317	509.0	0.036709909046877515	128.0	128.0	128.0	128.0	
3740.0	0.26973489162145753	1776546.875	0.21787944053166394	3021.0	1.435406E7	1974051.1474609375	-17755.0	-1.2805195189141654	719.0	0.05185545108979358	128.0	128.0	128.0	128.0	
3382.0	0.24391534851972446	1776550.78125	0.178573152848858	2476.0	1.4354188E7	1974055.0537109375	-17616.0	-1.2704946125143306	906.0	0.06534219567086645	128.0	128.0	128.0	128.0	
3859.0	0.2783173654457767	1776554.6875	0.17511131466762006	2428.0	1.4354316E7	1974058.9599609375	-16856.0	-1.2156821746447295	1431.0	0.10320605077815662	128.0	128.0	128.0	128.0	
5305.0	0.3826052406555701	1776558.59375	0.20612361504121005	2858.0	1.4354444E7	1974062.8662109375	-14406.0	-1.0389841841440421	2447.0	0.17648162561436007	128.0	128.0	128.0	128.0	
7856.0	0.5665875156626125	1776562.5	0.28437558226294307	3943.0	1.4354572E7	1974066.7724609375	-11592.0	-0.8360339207689669	3913.0	0.2822119333996694	128.0	128.0	128.0	128.0	
12920.0	0.931811443783217	1776566.40625	0.5431479863104804	7531.0	1.43547E7	1974070.6787109375	-7206.0	-0.5197084569583484	5389.0	0.38866345747273656	128.0	128.0	128.0	128.0	
20108.0	1.4502217114236011	1776570.3125	1.0120106949818963	14032.0	1.4354828E7	1974074.5849609375	-4039.0	-0.291299258625419	6076.0	0.43821101644170485	128.0	128.0	128.0	128.0	
26226.0	1.8914618362738893	1776574.21875	1.4512314142264624	20122.0	1.4354956E7	1974078.4912109375	-4331.0	-0.3123587742279499	6104.0	0.44023042204742696	128.0	128.0	128.0	128.0	
31568.0	2.2767355771941635	1776578.125	1.8634065226801066	25837.0	1.4355084E7	1974082.3974609375	-5498.0	-0.39652471500929776	5731.0	0.413329054514057	128.0	128.0	128.0	128.0	
36426.0	2.627102449786955	1776582.03125	2.328518906655181	32286.0	1.4355212E7	1974086.3037109375	-6662.0	-0.48047429090431826	4140.0	0.2985835431317739	128.0	128.0	128.0	128.0	
37629.0	2.7138647692042315	1776585.9375	2.5533220235493213	35403.0	1.435534E7	1974090.2099609375	-7223.0	-0.5209345246475369	2226.0	0.1605427456549103	128.0	128.0	128.0	128.0	
33193.0	2.3939332239548237	1776589.84375	2.3687627755120726	32844.0	1.4355468E7	1974094.1162109375	-7649.0	-0.5516583385060237	349.0	0.025170448442750987	128.0	128.0	128.0	128.0	
22896.0	1.6512968124505059	1776593.75	1.7097874533876722	23707.0	1.4355596E7	1974098.0224609375	-16792.0	-1.211066390403079	-811.0	-0.05849064093716633	128.0	128.0	128.0	128.0	
16369.0	1.1805589414309194	1776597.65625	1.2614072872885809	17490.0	1.4355724E7	1974101.9287109375	-21589.0	-1.5570338436405473	-1121.0	-0.08084834585766147	128.0	128.0	128.0	128.0	
6607.0	0.47650760132164977	1776601.5625	0.648445564323135	8991.0	1.4355852E7	1974105.8349609375	-31920.0	-2.302122390523242	-2384.0	-0.17193796300148523	128.0	128.0	128.0	128.0	
4608.0	0.332336465398844	1776605.46875	0.41664664943774343	5777.0	1.435598E7	1974109.7412109375	-29527.0	-2.1295353328627744	-1169.0	-0.08431018403889944	128.0	128.0	128.0	128.0	
3404.0	0.24550202435279184	1776609.375	0.2355492395817327	3266.0	1.4356108E7	1974113.6474609375	-25877.0	-1.8662913878311382	138.0	0.009952784771059129	128.0	128.0	128.0	128.0	
3643.0	0.26273909363020587	1776613.28125	0.20698907458651958	2870.0	1.4356236E7	1974117.5537109375	-23534.0	-1.6973104116094604	773.0	0.05575001904368628	128.0	128.0	128.0	128.0	
4684.0	0.33781770918580406	1776617.1875	0.27860585196087984	3863.0	1.4356364E7	1974121.4599609375	-21784.0	-1.5710975612518265	821.0	0.05921185722492424	128.0	128.0	128.0	128.0	
5866.0	0.4230654743987888	1776621.09375	0.36681060395367193	5086.0	1.4356492E7	1974125.3662109375	-19933.0	-1.4376004263878377	780.0	0.05625487044511682	128.0	128.0	128.0	128.0	
6361.0	0.4587656806428052	1776625.0	0.3903222549345797	5412.0	1.435662E7	1974129.2724609375	-18542.0	-1.3372792407607128	949.0	0.06844342570822545	128.0	128.0	128.0	128.0	
6462.0	0.4660499651491601	1776628.90625	0.3846246462612923	5333.0	1.4356748E7	1974133.1787109375	-18204.0	-1.3129021302344954	1129.0	0.0814253188878678	128.0	128.0	128.0	128.0	
6264.0	0.4517698826515535	1776632.8125	0.37128214493777095	5148.0	1.4356876E7	1974137.0849609375	-17748.0	-1.2800146675127348	1116.0	0.08048773771378252	128.0	128.0	128.0	128.0	
5961.0	0.4299170291324889	1776636.71875	0.3627717927422277	5030.0	1.4357004E7	1974140.9912109375	-18111.0	-1.306194818758347	931.0	0.06714523639026122	128.0	128.0	128.0	128.0	
5806.0	0.41873817667224134	1776640.625	0.3445250206619526	4777.0	1.4357132E7	1974144.8974609375	-17336.0	-1.250300556457109	1029.0	0.07421315601028872	128.0	128.0	128.0	128.0	
5818.0	0.4196036362175508	1776644.53125	0.3295958435053639	4570.0	1.435726E7	1974148.8037109375	-16653.0	-1.201041484003244	1248.0	0.09000779271218691	128.0	128.0	128.0	128.0	
5825.0	0.42010848761898134	1776648.4375	0.325773397180247	4517.0	1.4357388E7	1974152.7099609375	-16861.0	-1.2160427827886084	1308.0	0.09433509043873435	128.0	128.0	128.0	128.0	
5918.0	0.4268157990951299	1776652.34375	0.3434431962303157	4762.0	1.4357516E7	1974156.6162109375	-17047.0	-1.2294574057409056	1156.0	0.08337260286481415	128.0	128.0	128.0	128.0	
5895.0	0.4251570016332867	1776656.25	0.34474138554827993	4780.0	1.4357644E7	1974160.5224609375	-17259.0	-1.2447471910413732	1115.0	0.08041561608500673	128.0	128.0	128.0	128.0	
5901.0	0.4255897314059414	1776660.15625	0.33543769543620294	4651.0	1.4357772E7	1974164.4287109375	-16374.0	-1.1809195495747984	1250.0	0.09015203596973849	128.0	128.0	128.0	128.0	
5999.0	0.4326576510259689	1776664.0625	0.3246194511198343	4501.0	1.43579E7	1974168.3349609375	-16035.0	-1.1564703174198052	1498.0	0.1080381999061346	128.0	128.0	128.0	128.0	
6009.0	0.4333788673137268	1776667.96875	0.3259897620665743	4520.0	1.4358028E7	1974172.2412109375	-16031.0	-1.156181830904702	1489.0	0.10738910524715249	128.0	128.0	128.0	128.0	
6078.0	0.4383552596992564	1776671.875	0.34430865577562525	4774.0	1.4358156E7	1974176.1474609375	-16406.0	-1.1832274416956237	1304.0	0.09404660392363119	128.0	128.0	128.0	128.0	
6136.0	0.4425383141682523	1776675.78125	0.35289112959994434	4893.0	1.4358284E7	1974180.0537109375	-16718.0	-1.2057293898736705	1243.0	0.08964718456830795	128.0	128.0	128.0	128.0	
6194.0	0.44672136863724815	1776679.6875	0.34892444001727585	4838.0	1.4358412E7	1974183.9599609375	-16331.0	-1.1778183195374394	1356.0	0.09779692861997231	128.0	128.0	128.0	128.0	
6213.0	0.44809167958398816	1776683.59375	0.3342116277470145	4634.0	1.435854E7	1974187.8662109375	-15706.0	-1.1327423015525702	1579.0	0.11388005183697365	128.0	128.0	128.0	128.0	
6387.0	0.4606408429909758	1776687.5	0.33053342467944924	4583.0	1.4358668E7	1974191.7724609375	-15364.0	-1.1080767045112496	1804.0	0.13010741831152658	128.0	128.0	128.0	128.0	
6461.0	0.4659778435203843	1776691.40625	0.34387592600297046	4768.0	1.4358796E7	1974195.6787109375	-15866.0	-1.1442817621566967	1693.0	0.12210191751741381	128.0	128.0	128.0	128.0	
6519.0	0.47016089798938016	1776695.3125	0.360247535735075	4995.0	1.4358924E7	1974199.5849609375	-16231.0	-1.1706061566598602	1524.0	0.10991336225430516	128.0	128.0	128.0	128.0	
6511.0	0.46958392495917384	1776699.21875	0.3643584685752951	5052.0	1.4359052E7	1974203.4912109375	-15619.0	-1.1264677198490762	1459.0	0.10522545638387876	128.0	128.0	128.0	128.0	
6620.0	0.47744518249573503	1776703.125	0.3498620211913611	4851.0	1.435918E7	1974207.3974609375	-15236.0	-1.0988451360279485	1769.0	0.12758316130437392	128.0	128.0	128.0	128.0	
6863.0	0.49497073828825217	1776707.03125	0.35036687259279164	4858.0	1.4359308E7	1974211.3037109375	-14933.0	-1.0769922825088838	2005.0	0.14460386569546052	128.0	128.0	128.0	128.0	
6954.0	0.5015338065068492	1776710.9375	0.36745969861265415	5095.0	1.4359436E7	1974215.2099609375	-15254.0	-1.1001433253459127	1859.0	0.13407410789419508	128.0	128.0	128.0	128.0	
7039.0	0.5076641449527913	1776714.84375	0.3847688895188438	5335.0	1.4359564E7	1974219.1162109375	-15601.0	-1.125169530531112	1704.0	0.1228952554339475	128.0	128.0	128.0	128.0	
7047.0	0.5082411179829976	1776718.75	0.38375918671598275	5321.0	1.4359692E7	1974223.0224609375	-15195.0	-1.095888149248141	1726.0	0.1244819312670149	128.0	128.0	128.0	128.0	
7121.0	0.5135781185124062	1776722.65625	0.37395064520247523	5185.0	1.435982E7	1974226.9287109375	-14514.0	-1.0467733200518274	1936.0	0.13962747330993097	128.0	128.0	128.0	128.0	
7291.0	0.5258387954042907	1776726.5625	0.3678924283853089	5101.0	1.4359948E7	1974230.8349609375	-14425.0	-1.0403544950907821	2190.0	0.15794636701898182	128.0	128.0	128.0	128.0	
7359.0	0.5307430661610444	1776730.46875	0.38368706508720696	5320.0	1.4360076E7	1974234.7412109375	-14553.0	-1.0495860635740835	2039.0	0.14705600107383743	128.0	128.0	128.0	128.0	
7502.0	0.5410564590759825	1776734.375	0.40416960765953164	5604.0	1.4360204E7	1974238.6474609375	-14779.0	-1.0658855516774122	1898.0	0.1368868514164509	128.0	128.0	128.0	128.0	
7548.0	0.5443740539996689	1776738.28125	0.4018617155387063	5572.0	1.4360332E7	1974242.5537109375	-14501.0	-1.0458357388777422	1976.0	0.1425123384609626	128.0	128.0	128.0	128.0	
7639.0	0.5509371222182659	1776742.1875	0.3870767816396692	5367.0	1.436046E7	1974246.4599609375	-13612.0	-0.9817196108960642	2272.0	0.16386034057859666	128.0	128.0	128.0	128.0	
7871.0	0.5676693400942493	1776746.09375	0.39089922796478604	5420.0	1.4360588E7	1974250.3662109375	-13314.0	-0.9602273655208786	2451.0	0.17677011212946322	128.0	128.0	128.0	128.0	
8006.0	0.577405759978981	1776750.0	0.4069823511817874	5643.0	1.4360716E7	1974254.2724609375	-13896.0	-1.0022021534683887	2363.0	0.17042340879719364	128.0	128.0	128.0	128.0	
8052.0	0.5807233549026675	1776753.90625	0.4152763384910034	5758.0	1.4360844E7	1974258.1787109375	-13931.0	-1.0047264104755416	2294.0	0.16544701641166407	128.0	128.0	128.0	128.0	
8030.0	0.5791366790696	1776757.8125	0.42414729883042557	5881.0	1.4360972E7	1974262.0849609375	-13587.0	-0.9799165701766694	2149.0	0.1549893802391744	128.0	128.0	128.0	128.0	
8126.0	0.5860603554320759	1776761.71875	0.41498785197590016	5754.0	1.43611E7	1974265.9912109375	-13043.0	-0.9406824041226393	2372.0	0.17107250345617575	128.0	128.0	128.0	128.0	
8251.0	0.5950755590290498	1776765.625	0.404385972545859	5607.0	1.4361228E7	1974269.8974609375	-12327.0	-0.889043317919173	2644.0	0.19068958648319084	128.0	128.0	128.0	128.0	
8433.0	0.6082016954662437	1776769.53125	0.41679089269529496	5779.0	1.4361356E7	1974273.8037109375	-12372.0	-0.8922887912140837	2654.0	0.19141080277094874	128.0	128.0	128.0	128.0	
8584.0	0.6190920614113882	1776773.4375	0.43208067799576266	5991.0	1.4361484E7	1974277.7099609375	-12799.0	-0.9230847267013463	2593.0	0.1870113834156255	128.0	128.0	128.0	128.0	
8638.0	0.6229866293652808	1776777.34375	0.4406631518200817	6110.0	1.4361612E7	1974281.6162109375	-12374.0	-0.8924330344716352	2528.0	0.18232347754519912	128.0	128.0	128.0	128.0	
8911.0	0.6426758340210718	1776781.25	0.43922071924456596	6090.0	1.436174E7	1974285.5224609375	-11901.0	-0.8583195040606861	2821.0	0.20345511477650582	128.0	128.0	128.0	128.0	
8968.0	0.6467867668612918	1776785.15625	0.42703216398145727	5921.0	1.4361868E7	1974289.4287109375	-10869.0	-0.7838899831640701	3047.0	0.21975460287983453	128.0	128.0	128.0	128.0	
9299.0	0.6706590259860785	1776789.0625	0.4366243406086374	6054.0	1.4361996E7	1974293.3349609375	-11178.0	-0.8061755664557895	3245.0	0.2340346853774411	128.0	128.0	128.0	128.0	
9451.0	0.6816215135599988	1776792.96875	0.46273237022547375	6416.0	1.4362124E7	1974297.2412109375	-11394.0	-0.8217538382713603	3035.0	0.21888914333452505	128.0	128.0	128.0	128.0	
9554.0	0.6890500413239052	1776796.875	0.47593062829144345	6599.0	1.4362252E7	1974301.1474609375	-11313.0	-0.8159119863405212	2955.0	0.2131194130324618	128.0	128.0	128.0	128.0	
9698.0	0.6994355558676191	1776800.78125	0.46475177583119587	6444.0	1.436238E7	1974305.0537109375	-10497.0	-0.7570607372594759	3254.0	0.23468378003642323	128.0	128.0	128.0	128.0	
9953.0	0.7178265712054457	1776804.6875	0.45342868011339665	6287.0	1.4362508E7	1974308.9599609375	-9992.0	-0.7206393147277016	3666.0	0.26439789109204903	128.0	128.0	128.0	128.0	
10233.0	0.7380206272626672	1776808.59375	0.47585850666266766	6598.0	1.4362636E7	1974312.8662109375	-9975.0	-0.7194132470385132	3635.0	0.2621621205999995	128.0	128.0	128.0	128.0	
10368.0	0.7477570471473989	1776812.5	0.49900954949969645	6919.0	1.4362764E7	1974316.7724609375	-10574.0	-0.7626141026752118	3449.0	0.24874749764770243	128.0	128.0	128.0	128.0	
10457.0	0.7541758721084443	1776816.40625	0.507447780066464	7036.0	1.4362892E7	1974320.6787109375	-10465.0	-0.7547528451386506	3421.0	0.2467280920419803	128.0	128.0	128.0	128.0	
10508.0	0.7578540751760096	1776820.3125	0.5076641449527913	7039.0	1.436302E7	1974324.5849609375	-9799.0	-0.706719840373974	3469.0	0.2501899302232182	128.0	128.0	128.0	128.0	
10607.0	0.7649941164248129	1776824.21875	0.5045629149154323	6996.0	1.4363148E7	1974328.4912109375	-9338.0	-0.6734717695083344	3611.0	0.26043120150938054	128.0	128.0	128.0	128.0	
10714.0	0.7727111307038225	1776828.125	0.5114865912779083	7092.0	1.4363276E7	1974332.3974609375	-9646.0	-0.6956852311712779	3622.0	0.2612245394259142	128.0	128.0	128.0	128.0	
10911.0	0.7869190915726533	1776832.03125	0.5344212692286097	7410.0	1.4363404E7	1974336.3037109375	-10225.0	-0.7374436542324608	3501.0	0.25249782234404355	128.0	128.0	128.0	128.0	
10850.0	0.7825196722173301	1776835.9375	0.5496389329003016	7621.0	1.4363532E7	1974340.2099609375	-10525.0	-0.7590801428651981	3229.0	0.23288073931702846	128.0	128.0	128.0	128.0	
10914.0	0.7871354564589806	1776839.84375	0.5569953390354323	7723.0	1.436366E7	1974344.1162109375	-10490.0	-0.7565558858580453	3191.0	0.2301401174235484	128.0	128.0	128.0	128.0	
11015.0	0.7944197409653355	1776843.75	0.5496389329003015	7621.0	1.4363788E7	1974348.0224609375	-10302.0	-0.7429970196481968	3394.0	0.24478080806503394	128.0	128.0	128.0	128.0	
11101.0	0.8006222010400535	1776847.65625	0.5553365415735891	7700.0	1.4363916E7	1974351.9287109375	-10435.0	-0.7525891962753769	3401.0	0.24528565946646447	128.0	128.0	128.0	128.0	
11113.0	0.801487660585363	1776851.5625	0.5786318276681695	8023.0	1.4364044E7	1974355.8349609375	-11310.0	-0.8156956214541938	3090.0	0.22285583291719355	128.0	128.0	128.0	128.0	
11165.0	0.8052379852817042	1776855.46875	0.5938494913398614	8234.0	1.4364172E7	1974359.7412109375	-11972.0	-0.8634401397037673	2931.0	0.2113884939418428	128.0	128.0	128.0	128.0	
11090.0	0.7998288631235199	1776859.375	0.5900991666435202	8182.0	1.43643E7	1974363.6474609375	-12136.0	-0.8752680868229971	2908.0	0.20972969647999962	128.0	128.0	128.0	128.0	
10831.0	0.78114936127059	1776863.28125	0.5823821523645105	8075.0	1.4364428E7	1974367.5537109375	-12147.0	-0.8760614247395307	2756.0	0.1987672089060794	128.0	128.0	128.0	128.0	
10563.0	0.7618207647586781	1776867.1875	0.5703378403589535	7908.0	1.4364556E7	1974371.4599609375	-12603.0	-0.9089488874612913	2655.0	0.19148292439972456	128.0	128.0	128.0	128.0	
10313.0	0.7437903575647304	1776871.09375	0.5766845436912231	7996.0	1.4364684E7	1974375.3662109375	-14020.0	-1.0111452354365869	2317.0	0.16710581387350726	128.0	128.0	128.0	128.0	
10007.0	0.7217211391593384	1776875.0	0.5833918551673717	8089.0	1.4364812E7	1974379.2724609375	-14717.0	-1.061414010693313	1918.0	0.13832928399196673	128.0	128.0	128.0	128.0	
9482.0	0.6838572840520483	1776878.90625	0.5505043924456111	7633.0	1.436494E7	1974383.1787109375	-14991.0	-1.0811753369778798	1849.0	0.13335289160643718	128.0	128.0	128.0	128.0	
9097.0	0.6560904569733688	1776882.8125	0.5213672544201916	7229.0	1.4365068E7	1974387.0849609375	-14794.0	-1.066967376109049	1868.0	0.13472320255317718	128.0	128.0	128.0	128.0	
8811.0	0.6354636711434927	1776886.71875	0.5031204823399166	6976.0	1.4365196E7	1974390.9912109375	-15264.0	-1.1008645416336706	1835.0	0.1323431888035761	128.0	128.0	128.0	128.0	
8514.0	0.6140435473970828	1776890.625	0.4992980360147996	6923.0	1.4365324E7	1974394.8974609375	-16464.0	-1.1874104961646195	1591.0	0.11474551138228314	128.0	128.0	128.0	128.0	
8064.0	0.5815888144479769	1776894.53125	0.4894173728725163	6786.0	1.4365452E7	1974398.8037109375	-16999.0	-1.2259955675596677	1278.0	0.09217144157546063	128.0	128.0	128.0	128.0	
7656.0	0.5521631899074543	1776898.4375	0.4652566272326264	6451.0	1.436558E7	1974402.7099609375	-16889.0	-1.2180621883943306	1205.0	0.0869065626748279	128.0	128.0	128.0	128.0	
7389.0	0.5329067150243182	1776902.34375	0.43597524594965537	6045.0	1.4365708E7	1974406.6162109375	-16702.0	-1.2045754438132577	1344.0	0.09693146907466282	128.0	128.0	128.0	128.0	
7311.0	0.5272812279798065	1776906.25	0.4281861100418699	5937.0	1.4365836E7	1974410.5224609375	-16830.0	-1.213807012296559	1374.0	0.09909511793793654	128.0	128.0	128.0	128.0	
7191.0	0.5186266325267116	1776910.15625	0.42494063674695937	5892.0	1.4365964E7	1974414.4287109375	-17364.0	-1.2523199620628314	1299.0	0.09368599577975223	128.0	128.0	128.0	128.0	
6974.0	0.502976239082365	1776914.0625	0.43071036704902266	5972.0	1.4366092E7	1974418.3349609375	-18037.0	-1.3008578182289385	1002.0	0.07226587203334237	128.0	128.0	128.0	128.0	
6756.0	0.48725372400924255	1776917.96875	0.42710428561023306	5922.0	1.436622E7	1974422.2412109375	-18170.0	-1.3104499948561186	834.0	0.06014943839900952	128.0	128.0	128.0	128.0	
6709.0	0.4838640074567804	1776921.875	0.40373687788687684	5598.0	1.4366348E7	1974426.1474609375	-17797.0	-1.2835486273227488	1111.0	0.08012712956990356	128.0	128.0	128.0	128.0	
6577.0	0.474343952458376	1776925.78125	0.37964825387576273	5264.0	1.4366476E7	1974430.0537109375	-17549.0	-1.2656624633863525	1313.0	0.0946956985826133	128.0	128.0	128.0	128.0	
6559.0	0.4730457631404118	1776929.6875	0.38671617349579024	5362.0	1.4366604E7	1974433.9599609375	-17899.0	-1.2909050334578793	1197.0	0.08632958964462158	128.0	128.0	128.0	128.0	
6488.0	0.4679251274973306	1776933.59375	0.4070544728105632	5644.0	1.4366732E7	1974437.8662109375	-18477.0	-1.3325913348902865	844.0	0.060870654686767424	128.0	128.0	128.0	128.0	
6473.0	0.46684330306569377	1776937.5	0.391620444252544	5430.0	1.436686E7	1974441.7724609375	-18534.0	-1.3367022677305065	1043.0	0.07522285881314979	128.0	128.0	128.0	128.0	
6474.0	0.46691542469446956	1776941.40625	0.37690763198228266	5226.0	1.4366988E7	1974445.6787109375	-17900.0	-1.2909771550866551	1248.0	0.09000779271218691	128.0	128.0	128.0	128.0	
6447.0	0.46496814071752324	1776945.3125	0.3698397123622552	5128.0	1.4367116E7	1974449.5849609375	-17689.0	-1.2757594914149633	1319.0	0.09512842835526805	128.0	128.0	128.0	128.0	
6506.0	0.4692233168152949	1776949.21875	0.38498525440517123	5338.0	1.4367244E7	1974453.4912109375	-18165.0	-1.3100893867122396	1168.0	0.08423806241012365	128.0	128.0	128.0	128.0	
6533.0	0.4711706007922412	1776953.125	0.3983998773574683	5524.0	1.4367372E7	1974457.3974609375	-18816.0	-1.3570405670452794	1009.0	0.07277072343477291	128.0	128.0	128.0	128.0	
6470.0	0.4666269381793664	1776957.03125	0.3916925658813198	5431.0	1.43675E7	1974461.3037109375	-18623.0	-1.3431210926915518	1039.0	0.07493437229804663	128.0	128.0	128.0	128.0	
6377.0	0.45991962670321784	1776960.9375	0.37597005080819734	5213.0	1.4367628E7	1974465.2099609375	-17916.0	-1.2921311011470678	1164.0	0.08394957589502047	128.0	128.0	128.0	128.0	
6481.0	0.4674202760959001	1776964.84375	0.3622669413407971	5023.0	1.4367756E7	1974469.1162109375	-17664.0	-1.2739564506955685	1458.0	0.10515333475510297	128.0	128.0	128.0	128.0	
6553.0	0.47261303336775706	1776968.75	0.37106578005144364	5145.0	1.4367884E7	1974473.0224609375	-18194.0	-1.3121809139467375	1408.0	0.10154725331631342	128.0	128.0	128.0	128.0	
6523.0	0.4704493845044833	1776972.65625	0.39270226868418084	5445.0	1.4368012E7	1974476.9287109375	-18729.0	-1.3507659853417857	1078.0	0.07774711582030247	128.0	128.0	128.0	128.0	
6403.0	0.46179478905138843	1776976.5625	0.3941447012596967	5465.0	1.436814E7	1974480.8349609375	-18434.0	-1.3294901048529275	938.0	0.06765008779169177	128.0	128.0	128.0	128.0	
6420.0	0.46302085674057686	1776980.46875	0.39183680913887137	5433.0	1.4368268E7	1974484.7412109375	-18100.0	-1.3054014808418133	987.0	0.0711840476017055	128.0	128.0	128.0	128.0	
6450.0	0.4651845056038506	1776984.375	0.3722197261118563	5161.0	1.4368396E7	1974488.6474609375	-17842.0	-1.2867941006176593	1289.0	0.09296477949199433	128.0	128.0	128.0	128.0	
6509.0	0.46943968170162226	1776988.28125	0.4012847425085	5564.0	1.4368524E7	1974492.5537109375	-17961.0	-1.2953765744419783	945.0	0.0681549391931223	128.0	128.0	128.0	128.0	
6477.0	0.46713178958079693	1776992.1875	0.4384273813280322	6079.0	1.4368652E7	1974496.4599609375	-18392.0	-1.3264609964443441	398.0	0.028704408252764733	128.0	128.0	128.0	128.0	
6701.0	0.48328703442657406	1776996.09375	0.40525143209116843	5619.0	1.436878E7	1974500.3662109375	-18945.0	-1.3663442571573565	1082.0	0.07803560233540563	128.0	128.0	128.0	128.0	
6454.0	0.46547299211895377	1777000.0	0.36608938766591403	5076.0	1.4368908E7	1974504.2724609375	-18099.0	-1.3053293592130375	1378.0	0.0993836044530397	128.0	128.0	128.0	128.0	
6526.0	0.4706657493908107	1777003.90625	0.35736267058404336	4955.0	1.4369036E7	1974508.1787109375	-17761.0	-1.2809522486868201	1571.0	0.11330307880676734	128.0	128.0	128.0	128.0	
6630.0	0.47816639878349293	1777007.8125	0.3748161047477847	5197.0	1.4369164E7	1974512.0849609375	-17882.0	-1.289678965768691	1433.0	0.1033502940357082	128.0	128.0	128.0	128.0	
6709.0	0.4838640074567804	1777011.71875	0.3880143628137544	5380.0	1.4369292E7	1974515.9912109375	-18534.0	-1.3367022677305065	1329.0	0.09584964464302596	128.0	128.0	128.0	128.0	
6717.0	0.48444098048698675	1777015.625	0.3922695389115261	5439.0	1.436942E7	1974519.8974609375	-18666.0	-1.346222322728911	1278.0	0.09217144157546063	128.0	128.0	128.0	128.0	
6737.0	0.48588341306250254	1777019.53125	0.39003376841947657	5408.0	1.4369548E7	1974523.8037109375	-18224.0	-1.3143445628100114	1329.0	0.09584964464302596	128.0	128.0	128.0	128.0	
6776.0	0.4886961565847584	1777023.4375	0.37748460501248904	5234.0	1.4369676E7	1974527.7099609375	-17826.0	-1.2856401545572467	1542.0	0.11121155157226939	128.0	128.0	128.0	128.0	
6913.0	0.4985768197270417	1777027.34375	0.38246099739801853	5303.0	1.4369804E7	1974531.6162109375	-17977.0	-1.296530520502391	1610.0	0.11611582232902316	128.0	128.0	128.0	128.0	
6926.0	0.49951440090112703	1777031.25	0.39652471500929776	5498.0	1.4369932E7	1974535.5224609375	-18552.0	-1.3380004570484707	1428.0	0.10298968589182925	128.0	128.0	128.0	128.0	
6959.0	0.5018944146507281	1777035.15625	0.40229444531136105	5578.0	1.437006E7	1974539.4287109375	-18777.0	-1.3542278235230236	1381.0	0.09959996933936707	128.0	128.0	128.0	128.0	
6997.0	0.5046350365442082	1777039.0625	0.39263014705540505	5444.0	1.4370188E7	1974543.3349609375	-18514.0	-1.3352598351549907	1553.0	0.11200488948880309	128.0	128.0	128.0	128.0	
7104.0	0.5123520508232178	1777042.96875	0.38534586254905023	5343.0	1.4370316E7	1974547.2412109375	-17992.0	-1.2976123449340278	1761.0	0.12700618827416757	128.0	128.0	128.0	128.0	
7173.0	0.5173284432087474	1777046.875	0.377845213156368	5239.0	1.4370444E7	1974551.1474609375	-18011.0	-1.298982655880768	1934.0	0.1394832300523794	128.0	128.0	128.0	128.0	
7138.0	0.5148041862015946	1777050.78125	0.39551501220643664	5484.0	1.4370572E7	1974555.0537109375	-18679.0	-1.3471599039029962	1654.0	0.11928917399515797	128.0	128.0	128.0	128.0	
7128.0	0.5140829699138367	1777054.6875	0.4134011761428328	5732.0	1.43707E7	1974558.9599609375	-19054.0	-1.3742055146939176	1396.0	0.10068179377100395	128.0	128.0	128.0	128.0	
7096.0	0.5117750777930115	1777058.59375	0.40503506720484106	5616.0	1.4370828E7	1974562.8662109375	-19059.0	-1.3745661228377966	1480.0	0.10674001058817037	128.0	128.0	128.0	128.0	
7076.0	0.5103326452174957	1777062.5	0.38390342997353444	5323.0	1.4370956E7	1974566.7724609375	-18192.0	-1.312036670689186	1753.0	0.12642921524396125	128.0	128.0	128.0	128.0	
7273.0	0.5245406060863264	1777066.40625	0.3801531052771932	5271.0	1.4371084E7	1974570.6787109375	-18176.0	-1.3108827246287733	2002.0	0.14438750080913315	128.0	128.0	128.0	128.0	
7414.0	0.5347097557437129	1777070.3125	0.3870046600108934	5366.0	1.4371212E7	1974574.5849609375	-18848.0	-1.3593484591661047	2048.0	0.14770509573281954	128.0	128.0	128.0	128.0	
7547.0	0.5443019323708931	1777074.21875	0.40301566159911895	5588.0	1.437134E7	1974578.4912109375	-19142.0	-1.3805522180261873	1959.0	0.14128627077177416	128.0	128.0	128.0	128.0	
7866.0	0.5673087319503703	1777078.125	0.4017895939099305	5571.0	1.4371468E7	1974582.3974609375	-19088.0	-1.3766576500722947	2295.0	0.16551913804043986	128.0	128.0	128.0	128.0	
8431.0	0.6080574522086921	1777082.03125	0.3866440518670144	5361.0	1.4371596E7	1974586.3037109375	-18658.0	-1.3456453496987046	3070.0	0.22141340034167772	128.0	128.0	128.0	128.0	
8391.0	0.6051725870576605	1777085.9375	0.3800088620196417	5269.0	1.4371724E7	1974590.2099609375	-18391.0	-1.3263888748155683	3122.0	0.22516372503801885	128.0	128.0	128.0	128.0	
8057.0	0.5810839630465464	1777089.84375	0.3969574447819525	5504.0	1.4371852E7	1974594.1162109375	-18829.0	-1.3579781482193647	2553.0	0.1841265182645939	128.0	128.0	128.0	128.0	
7929.0	0.5718523945632452	1777093.75	0.4176563522406045	5791.0	1.437198E7	1974598.0224609375	-19696.0	-1.4205076003679753	2138.0	0.1541960423226407	128.0	128.0	128.0	128.0	
7819.0	0.5639190153979082	1777097.65625	0.4105163109918012	5692.0	1.4372108E7	1974601.9287109375	-19481.0	-1.4050014501811803	2127.0	0.153402704406107	128.0	128.0	128.0	128.0	
7650.0	0.5517304601347995	1777101.5625	0.3799367403908659	5268.0	1.4372236E7	1974605.8349609375	-18656.0	-1.345501106441153	2382.0	0.17179371974393365	128.0	128.0	128.0	128.0	
7693.0	0.5548316901721585	1777105.46875	0.3794318889894353	5261.0	1.4372364E7	1974609.7412109375	-18733.0	-1.3510544718568889	2432.0	0.1753998011827232	128.0	128.0	128.0	128.0	
7665.0	0.5528122845664364	1777109.375	0.39010589004825236	5409.0	1.4372492E7	1974613.6474609375	-19052.0	-1.374061271436366	2256.0	0.16270639451818403	128.0	128.0	128.0	128.0	
7632.0	0.5504322708168353	1777113.28125	0.4084969053860791	5664.0	1.437262E7	1974617.5537109375	-19670.0	-1.4186324380198048	1968.0	0.14193536543075627	128.0	128.0	128.0	128.0	
7534.0	0.5433643511968078	1777117.1875	0.4056120402350474	5624.0	1.4372748E7	1974621.4599609375	-19551.0	-1.4100499641954858	1910.0	0.1377523109617604	128.0	128.0	128.0	128.0	
7453.0	0.5375224992659687	1777121.09375	0.39522652569133354	5480.0	1.4372876E7	1974625.3662109375	-18987.0	-1.3693733655659397	1973.0	0.14229597357463522	128.0	128.0	128.0	128.0	
7461.0	0.538099472296175	1777125.0	0.381956145996588	5296.0	1.4373004E7	1974629.2724609375	-18830.0	-1.3580502698481405	2165.0	0.15614332629958705	128.0	128.0	128.0	128.0	
7479.0	0.5393976616141393	1777128.90625	0.39861624224379566	5527.0	1.4373132E7	1974633.1787109375	-19494.0	-1.4059390313552655	1952.0	0.1407814193703436	128.0	128.0	128.0	128.0	
7518.0	0.5422104051363952	1777132.8125	0.41931514970244765	5814.0	1.437326E7	1974637.0849609375	-20065.0	-1.4471204813862422	1704.0	0.1228952554339475	128.0	128.0	128.0	128.0	
7398.0	0.5335558096833003	1777136.71875	0.40943448656016435	5677.0	1.4373388E7	1974640.9912109375	-19835.0	-1.4305325067678103	1721.0	0.12412132312313595	128.0	128.0	128.0	128.0	
7393.0	0.5331952015394213	1777140.625	0.40013079644808736	5548.0	1.4373516E7	1974644.8974609375	-19602.0	-1.413728167263051	1845.0	0.133064405091334	128.0	128.0	128.0	128.0	
7398.0	0.5335558096833003	1777144.53125	0.3893125521317187	5398.0	1.4373644E7	1974648.8037109375	-19012.0	-1.3711764062853344	2000.0	0.14424325755158157	128.0	128.0	128.0	128.0	
7409.0	0.534349147599834	1777148.4375	0.3822446325116912	5300.0	1.4373772E7	1974652.7099609375	-19252.0	-1.3884855971915242	2109.0	0.15210451508814277	128.0	128.0	128.0	128.0	
7379.0	0.5321854987365602	1777152.34375	0.39688532315317665	5503.0	1.43739E7	1974656.6162109375	-19955.0	-1.4391871022209053	1876.0	0.13530017558338353	128.0	128.0	128.0	128.0	
7313.0	0.5274254712373581	1777156.25	0.41087691913568014	5697.0	1.4374028E7	1974660.5224609375	-20189.0	-1.4560635633544403	1616.0	0.11654855210167792	128.0	128.0	128.0	128.0	
7222.0	0.5208624030187611	1777160.15625	0.4007798911070694	5557.0	1.4374156E7	1974664.4287109375	-19518.0	-1.4076699504458847	1665.0	0.12008251191169167	128.0	128.0	128.0	128.0	
7316.0	0.5276418361236854	1777164.0625	0.38534586254905023	5343.0	1.4374284E7	1974668.3349609375	-19276.0	-1.3902165162821432	1973.0	0.14229597357463522	128.0	128.0	128.0	128.0	
7321.0	0.5280024442675644	1777167.96875	0.38246099739801853	5303.0	1.4374412E7	1974672.2412109375	-19469.0	-1.4041359906358708	2018.0	0.14554144686954582	128.0	128.0	128.0	128.0	
7156.0	0.5161023755195588	1777171.875	0.40654962140913264	5637.0	1.437454E7	1974676.1474609375	-20103.0	-1.4498611032797222	1519.0	0.10955275411042621	128.0	128.0	128.0	128.0	
7101.0	0.5121356859368904	1777175.78125	0.40510718883361685	5617.0	1.4374668E7	1974680.0537109375	-20178.0	-1.4552702254379066	1484.0	0.10702849710327353	128.0	128.0	128.0	128.0	
7208.0	0.5198527002159	1777179.6875	0.40496294557606527	5615.0	1.4374796E7	1974683.9599609375	-19748.0	-1.4242579250643166	1593.0	0.11488975463983472	128.0	128.0	128.0	128.0	
7224.0	0.5210066462763127	1777183.59375	0.3844082813749649	5330.0	1.4374924E7	1974687.8662109375	-19367.0	-1.3967795845007402	1894.0	0.13659836490134775	128.0	128.0	128.0	128.0	
7203.0	0.5194920920720211	1777187.5	0.38678829512456603	5363.0	1.4375052E7	1974691.7724609375	-19450.0	-1.4027656796891308	1840.0	0.13270379694745504	128.0	128.0	128.0	128.0	
7200.0	0.5192757271856937	1777191.40625	0.40864114864363066	5666.0	1.437518E7	1974695.6787109375	-20186.0	-1.455847198468113	1534.0	0.11063457854206307	128.0	128.0	128.0	128.0	
7075.0	0.5102605235887199	1777195.3125	0.41498785197590027	5754.0	1.4375308E7	1974699.5849609375	-20257.0	-1.460967834111194	1321.0	0.09527267161281963	128.0	128.0	128.0	128.0	
7043.0	0.5079526314678945	1777199.21875	0.40077989110706935	5557.0	1.4375436E7	1974703.4912109375	-19589.0	-1.4127905860889658	1486.0	0.10717274036082511	128.0	128.0	128.0	128.0	
7129.0	0.5141550915426125	1777203.125	0.3914040793662166	5427.0	1.4375564E7	1974707.3974609375	-19257.0	-1.3888462053354032	1702.0	0.12275101217639592	128.0	128.0	128.0	128.0	
7155.0	0.516030253890783	1777207.03125	0.3975344178121588	5512.0	1.4375692E7	1974711.3037109375	-19507.0	-1.4068766125293508	1643.0	0.11849583607862427	128.0	128.0	128.0	128.0	
7166.0	0.5168235918073167	1777210.9375	0.4018617155387062	5572.0	1.437582E7	1974715.2099609375	-19863.0	-1.4325519123735324	1594.0	0.11496187626861051	128.0	128.0	128.0	128.0	
7046.0	0.5081689963542219	1777214.84375	0.41181450030976535	5710.0	1.4375948E7	1974719.1162109375	-20304.0	-1.4643575506636561	1336.0	0.09635449604445649	128.0	128.0	128.0	128.0	
6964.0	0.5022550227946071	1777218.75	0.4053235537199443	5620.0	1.4376076E7	1974723.0224609375	-20133.0	-1.4520247521429959	1344.0	0.09693146907466282	128.0	128.0	128.0	128.0	
6948.0	0.5011010767341944	1777222.65625	0.39371197148704185	5459.0	1.4376204E7	1974726.9287109375	-19637.0	-1.4162524242702037	1489.0	0.10738910524715249	128.0	128.0	128.0	128.0	
7064.0	0.5094671856721862	1777226.5625	0.39544289057766097	5483.0	1.4376332E7	1974730.8349609375	-19458.0	-1.4033426527193371	1581.0	0.11402429509452523	128.0	128.0	128.0	128.0	
7153.0	0.5158860106332315	1777230.46875	0.40871327027240634	5667.0	1.437646E7	1974734.7412109375	-20126.0	-1.4515199007415653	1486.0	0.10717274036082511	128.0	128.0	128.0	128.0	
7041.0	0.5078083882103429	1777234.375	0.4115260137946622	5706.0	1.4376588E7	1974738.6474609375	-20529.0	-1.480584917138209	1335.0	0.0962823744156807	128.0	128.0	128.0	128.0	
6883.0	0.496413170863768	1777238.28125	0.4007077694782937	5556.0	1.4376716E7	1974742.5537109375	-20057.0	-1.4465435083560358	1327.0	0.09570540138547437	128.0	128.0	128.0	128.0	
6967.0	0.5024713876809345	1777242.1875	0.3855622274353776	5346.0	1.4376844E7	1974746.4599609375	-19714.0	-1.4218057896859395	1621.0	0.11690916024555686	128.0	128.0	128.0	128.0	
7063.0	0.5093950640434104	1777246.09375	0.38188402436781227	5295.0	1.4376972E7	1974750.3662109375	-19562.0	-1.4108433021120195	1768.0	0.12751103967559813	128.0	128.0	128.0	128.0	
6985.0	0.5037695769988987	1777250.0	0.391620444252544	5430.0	1.43771E7	1974754.2724609375	-20136.0	-1.4522411170293232	1555.0	0.11214913274635467	128.0	128.0	128.0	128.0	
7073.0	0.5101162803311683	1777253.90625	0.41087691913568014	5697.0	1.4377228E7	1974758.1787109375	-20791.0	-1.4994807838774662	1376.0	0.09923936119548812	128.0	128.0	128.0	128.0	
7075.0	0.5102605235887199	1777257.8125	0.4117423786809897	5709.0	1.4377356E7	1974762.0849609375	-20401.0	-1.471353348654908	1366.0	0.09851814490773021	128.0	128.0	128.0	128.0	
7090.0	0.5113423480203567	1777261.71875	0.39594774197909144	5490.0	1.4377484E7	1974765.9912109375	-20033.0	-1.444812589265417	1600.0	0.11539460604126527	128.0	128.0	128.0	128.0	
7068.0	0.5097556721872893	1777265.625	0.3911877144798893	5424.0	1.4377612E7	1974769.8974609375	-19700.0	-1.4207960868830785	1644.0	0.11856795770740006	128.0	128.0	128.0	128.0	
7189.0	0.51848238926916	1777269.53125	0.4084247837573033	5663.0	1.437774E7	1974773.8037109375	-20587.0	-1.4847679716072049	1526.0	0.11005760551185674	128.0	128.0	128.0	128.0	
7101.0	0.5121356859368904	1777273.4375	0.4137617842867118	5737.0	1.4377868E7	1974777.7099609375	-20644.0	-1.488878904447425	1364.0	0.09837390165017863	128.0	128.0	128.0	128.0	
6978.0	0.5032647255974682	1777277.34375	0.41001145959037066	5685.0	1.4377996E7	1974781.6162109375	-20557.0	-1.4826043227439312	1293.0	0.09325326600709749	128.0	128.0	128.0	128.0	
6971.0	0.5027598741960376	1777281.25	0.3972459312970557	5508.0	1.4378124E7	1974785.5224609375	-19896.0	-1.4349319261231335	1463.0	0.10551394289898193	128.0	128.0	128.0	128.0	
7013.0	0.5057889826046208	1777285.15625	0.3904664981921313	5414.0	1.4378252E7	1974789.4287109375	-19799.0	-1.4279361281318819	1599.0	0.11532248441248948	128.0	128.0	128.0	128.0	
6972.0	0.5028319958248134	1777289.0625	0.3885913358439608	5388.0	1.437838E7	1974793.3349609375	-19883.0	-1.4339943449490482	1584.0	0.11424065998085262	128.0	128.0	128.0	128.0	
6953.0	0.5014616848780734	1777292.96875	0.4170072575816224	5782.0	1.4378508E7	1974797.2412109375	-20662.0	-1.4901770937653893	1171.0	0.08445442729645102	128.0	128.0	128.0	128.0	
6989.0	0.5040580635140018	1777296.875	0.4151320952334518	5756.0	1.4378636E7	1974801.1474609375	-20731.0	-1.4951534861509188	1233.0	0.08892596828055005	128.0	128.0	128.0	128.0	
6868.0	0.4953313464321311	1777300.78125	0.39854412061501987	5526.0	1.4378764E7	1974805.0537109375	-19956.0	-1.439259223849681	1342.0	0.09678722581711124	128.0	128.0	128.0	128.0	
7034.0	0.5073035368089124	1777304.6875	0.39097134959356183	5421.0	1.4378892E7	1974808.9599609375	-19866.0	-1.4327682772598598	1613.0	0.11633218721535055	128.0	128.0	128.0	128.0	
7154.0	0.5159581322620073	1777308.59375	0.40200595879625783	5574.0	1.437902E7	1974812.8662109375	-20496.0	-1.478204903388608	1580.0	0.11395217346574944	128.0	128.0	128.0	128.0	
7216.0	0.5204296732461063	1777312.5	0.42061333902041187	5832.0	1.4379148E7	1974816.7724609375	-21032.0	-1.516862096412432	1384.0	0.09981633422569446	128.0	128.0	128.0	128.0	
7169.0	0.5170399566936442	1777316.40625	0.4273927721253363	5926.0	1.4379276E7	1974820.6787109375	-20972.0	-1.5125347986858844	1243.0	0.08964718456830795	128.0	128.0	128.0	128.0	
7109.0	0.5127126589670967	1777320.3125	0.4157811898924339	5765.0	1.4379404E7	1974824.5849609375	-20381.0	-1.4699109160793922	1344.0	0.09693146907466282	128.0	128.0	128.0	128.0	
7027.0	0.5067986854074819	1777324.21875	0.40510718883361685	5617.0	1.4379532E7	1974828.4912109375	-19942.0	-1.43824952104682	1410.0	0.10169149657386502	128.0	128.0	128.0	128.0	
7195.0	0.5189151190418148	1777328.125	0.4131126896277297	5728.0	1.437966E7	1974832.3974609375	-20506.0	-1.478926119676366	1467.0	0.10580242941408509	128.0	128.0	128.0	128.0	
7168.0	0.5169678350648683	1777332.03125	0.4259503395498203	5906.0	1.4379788E7	1974836.3037109375	-21046.0	-1.517871799215293	1262.0	0.09101749551504798	128.0	128.0	128.0	128.0	
7123.0	0.5137223617699578	1777335.9375	0.43107097519290155	5977.0	1.4379916E7	1974840.2099609375	-20940.0	-1.510226906565059	1146.0	0.08265138657705624	128.0	128.0	128.0	128.0	
7194.0	0.518842997413039	1777339.84375	0.42039697413408456	5829.0	1.4380044E7	1974844.1162109375	-20384.0	-1.4701272809657195	1365.0	0.09844602327895442	128.0	128.0	128.0	128.0	
7304.0	0.526776376578376	1777343.75	0.4174399873542771	5788.0	1.4380172E7	1974848.0224609375	-20223.0	-1.4585156987328172	1516.0	0.10933638922409884	128.0	128.0	128.0	128.0	
7411.0	0.5344933908573856	1777347.65625	0.42710428561023306	5922.0	1.43803E7	1974851.9287109375	-20258.0	-1.4610399557399698	1489.0	0.10738910524715249	128.0	128.0	128.0	128.0	
7701.0	0.5554086632023648	1777351.5625	0.43994193553232375	6100.0	1.4380428E7	1974855.8349609375	-21109.0	-1.5224154618281678	1601.0	0.11546672767004106	128.0	128.0	128.0	128.0	
7820.0	0.563991137026684	1777355.46875	0.4576838562111684	6346.0	1.4380556E7	1974859.7412109375	-20902.0	-1.507486284671579	1474.0	0.10630728081551562	128.0	128.0	128.0	128.0	
8281.0	0.5972392078923235	1777359.375	0.4709542359059139	6530.0	1.4380684E7	1974863.6474609375	-20213.0	-1.4577944824450593	1751.0	0.12628497198640967	128.0	128.0	128.0	128.0	
8278.0	0.5970228430059962	1777363.28125	0.4666269381793664	6470.0	1.4380812E7	1974867.5537109375	-20036.0	-1.4450289541517443	1808.0	0.13039590482662974	128.0	128.0	128.0	128.0	
8522.0	0.6146205204272891	1777367.1875	0.47189181707999917	6543.0	1.438094E7	1974871.4599609375	-20245.0	-1.4601023745658845	1979.0	0.14272870334728996	128.0	128.0	128.0	128.0	
8349.0	0.6021434786490772	1777371.09375	0.4883355484408794	6771.0	1.4381068E7	1974875.3662109375	-20759.0	-1.497172891756641	1578.0	0.11380793020819786	128.0	128.0	128.0	128.0	
8421.0	0.6073362359209342	1777375.0	0.4855949265473994	6733.0	1.4381196E7	1974879.2724609375	-20847.0	-1.5035195950889106	1688.0	0.12174130937353485	128.0	128.0	128.0	128.0	
8584.0	0.6190920614113882	1777378.90625	0.4802579260179909	6659.0	1.4381324E7	1974883.1787109375	-20722.0	-1.4945043914919367	1925.0	0.13883413539339726	128.0	128.0	128.0	128.0	
8621.0	0.6217605616760924	1777382.8125	0.4829264262826951	6696.0	1.4381452E7	1974887.0849609375	-20590.0	-1.4849843364935325	1925.0	0.13883413539339726	128.0	128.0	128.0	128.0	
8599.0	0.620173885843025	1777386.71875	0.4785991285561477	6636.0	1.438158E7	1974890.9912109375	-20567.0	-1.483325539031689	1963.0	0.14157475728687732	128.0	128.0	128.0	128.0	
8791.0	0.6340212385679769	1777390.625	0.5102605235887199	7075.0	1.4381708E7	1974894.8974609375	-20983.0	-1.513328136602418	1716.0	0.12376071497925699	128.0	128.0	128.0	128.0	
8845.0	0.6379158065218695	1777394.53125	0.516751470178541	7165.0	1.4381836E7	1974898.8037109375	-21542.0	-1.5536441270880852	1680.0	0.12116433634332853	128.0	128.0	128.0	128.0	
8608.0	0.6208229805020071	1777398.4375	0.48609977794882997	6740.0	1.4381964E7	1974902.7099609375	-21053.0	-1.5183766506167236	1868.0	0.13472320255317718	128.0	128.0	128.0	128.0	
8313.0	0.5995471000131488	1777402.34375	0.45285170708319034	6279.0	1.4382092E7	1974906.6162109375	-20429.0	-1.47337275426063	2034.0	0.14669539292995845	128.0	128.0	128.0	128.0	
8183.0	0.590171288272296	1777406.25	0.430566123791471	5970.0	1.438222E7	1974910.5224609375	-20421.0	-1.4727957812304238	2213.0	0.159605164480825	128.0	128.0	128.0	128.0	
8324.0	0.6003404379296825	1777410.15625	0.43922071924456585	6090.0	1.4382348E7	1974914.4287109375	-20949.0	-1.5108760012240412	2234.0	0.16111971868511663	128.0	128.0	128.0	128.0	
8093.0	0.5836803416824748	1777414.0625	0.453645044999724	6290.0	1.4382476E7	1974918.3349609375	-21347.0	-1.539580409476806	1803.0	0.1300352966827508	128.0	128.0	128.0	128.0	
7824.0	0.5642796235417872	1777417.96875	0.43604736757843116	6046.0	1.4382604E7	1974922.2412109375	-21026.0	-1.5164293666397772	1778.0	0.12823225596335602	128.0	128.0	128.0	128.0	
7763.0	0.5598802041864639	1777421.875	0.4203248525053087	5828.0	1.4382732E7	1974926.1474609375	-20641.0	-1.4886625395610977	1935.0	0.13955535168115518	128.0	128.0	128.0	128.0	
7589.0	0.5473310407794763	1777425.78125	0.4146272438320212	5749.0	1.438286E7	1974930.0537109375	-20625.0	-1.487508593500685	1840.0	0.13270379694745504	128.0	128.0	128.0	128.0	
7516.0	0.5420661618788436	1777429.6875	0.4405189085625302	6108.0	1.4382988E7	1974933.9599609375	-21104.0	-1.5220548536842888	1408.0	0.10154725331631342	128.0	128.0	128.0	128.0	
7364.0	0.5311036743049233	1777433.59375	0.45263534219686297	6276.0	1.4383116E7	1974937.8662109375	-21779.0	-1.5707369531079476	1088.0	0.07846833210806038	128.0	128.0	128.0	128.0	
7116.0	0.5132175103685273	1777437.5	0.4329461375410721	6003.0	1.4383244E7	1974941.7724609375	-21576.0	-1.556096262466462	1113.0	0.08027137282745515	128.0	128.0	128.0	128.0	
7088.0	0.5111981047628051	1777441.40625	0.4190266631873445	5810.0	1.4383372E7	1974945.6787109375	-21470.0	-1.5484513698162283	1278.0	0.09217144157546063	128.0	128.0	128.0	128.0	
6988.0	0.503985941885226	1777445.3125	0.39919321527400203	5535.0	1.43835E7	1974949.5849609375	-21073.0	-1.5198190831922394	1453.0	0.10479272661122402	128.0	128.0	128.0	128.0	
7058.0	0.5090344558995313	1777449.21875	0.4121751084536443	5715.0	1.4383628E7	1974953.4912109375	-21346.0	-1.5395082878480302	1343.0	0.09685934744588703	128.0	128.0	128.0	128.0	
7169.0	0.5170399566936442	1777453.125	0.4304218805339195	5968.0	1.4383756E7	1974957.3974609375	-22217.0	-1.602326226511744	1201.0	0.08661807615972474	128.0	128.0	128.0	128.0	
6922.0	0.4992259143860238	1777457.03125	0.4219115283383761	5850.0	1.4383884E7	1974961.3037109375	-21807.0	-1.5727563587136697	1072.0	0.07731438604764773	128.0	128.0	128.0	128.0	
6846.0	0.49374467059906374	1777460.9375	0.4059726483789263	5629.0	1.4384012E7	1974965.2099609375	-21359.0	-1.5404458690221154	1217.0	0.08777202222013739	128.0	128.0	128.0	128.0	
6891.0	0.49699014389397433	1777464.84375	0.39515440406255775	5479.0	1.438414E7	1974969.1162109375	-20854.0	-1.5040244464903412	1412.0	0.1018357398314166	128.0	128.0	128.0	128.0	
6983.0	0.5036253337413471	1777468.75	0.4031599048566705	5590.0	1.4384268E7	1974973.0224609375	-21497.0	-1.5503986537931747	1393.0	0.10046542888467656	128.0	128.0	128.0	128.0	
6974.0	0.502976239082365	1777472.65625	0.4240751772016499	5880.0	1.4384396E7	1974976.9287109375	-21919.0	-1.5808339811365584	1094.0	0.07890106188071512	128.0	128.0	128.0	128.0	
7153.0	0.5158860106332315	1777476.5625	0.4359031243208795	6044.0	1.4384524E7	1974980.8349609375	-21951.0	-1.5831418732573836	1109.0	0.07998288631235198	128.0	128.0	128.0	128.0	
7106.0	0.5124962940807694	1777480.46875	0.4301333940188163	5964.0	1.4384652E7	1974984.7412109375	-21272.0	-1.5341712873186217	1142.0	0.08236290006195308	128.0	128.0	128.0	128.0	
7155.0	0.516030253890783	1777484.375	0.41513209523345174	5756.0	1.438478E7	1974988.6474609375	-21102.0	-1.5219106104267373	1399.0	0.10089815865733132	128.0	128.0	128.0	128.0	
7140.0	0.5149484294591462	1777488.28125	0.42010848761898134	5825.0	1.4384908E7	1974992.5537109375	-21566.0	-1.5553750461787041	1315.0	0.09483994184016489	128.0	128.0	128.0	128.0	
6773.0	0.48847979169843103	1777492.1875	0.4081362972422001	5659.0	1.4385036E7	1974996.4599609375	-21686.0	-1.5640296416317991	1114.0	0.08034349445623094	128.0	128.0	128.0	128.0	
6268.0	0.45205836916665665	1777496.09375	0.3572905489552676	4954.0	1.4385164E7	1975000.3662109375	-20757.0	-1.4970286484990893	1314.0	0.0947678202113891	128.0	128.0	128.0	128.0	
6531.0	0.47102635753468963	1777500.0	0.3200757885069595	4438.0	1.4385292E7	1975004.2724609375	-18707.0	-1.3491793095087183	2093.0	0.15095056902773013	128.0	128.0	128.0	128.0	
8259.0	0.5956525320592562	1777503.90625	0.347842615585639	4823.0	1.438542E7	1975008.1787109375	-16364.0	-1.1801983332870405	3436.0	0.24780991647361716	128.0	128.0	128.0	128.0	
10839.0	0.7817263343007964	1777507.8125	0.44246619253947655	6135.0	1.4385548E7	1975012.0849609375	-14562.0	-1.0502351582330656	4704.0	0.33926014176131986	128.0	128.0	128.0	128.0	
15981.0	1.1525757494659126	1777511.71875	0.738381235406546	10238.0	1.4385676E7	1975015.9912109375	-10561.0	-0.7616765215011265	5743.0	0.4141945140593665	128.0	128.0	128.0	128.0	
23094.0	1.6655768949481125	1777515.625	1.1959929699889387	16583.0	1.4385804E7	1975019.8974609375	-6984.0	-0.5036974553701229	6511.0	0.46958392495917384	128.0	128.0	128.0	128.0	
26527.0	1.9131704465354022	1777519.53125	1.417190005444289	19650.0	1.4385932E7	1975023.8037109375	-6225.0	-0.4489571391292977	6877.0	0.4959804410911133	128.0	128.0	128.0	128.0	
31368.0	2.2623112514390056	1777523.4375	1.747146457093532	24225.0	1.438606E7	1975027.7099609375	-7001.0	-0.5049235230593113	7143.0	0.5151647943454736	128.0	128.0	128.0	128.0	
36546.0	2.6357570452400503	1777527.34375	2.226322558679886	30869.0	1.4386188E7	1975031.6162109375	-9254.0	-0.667413552691168	5677.0	0.4094344865601643	128.0	128.0	128.0	128.0	
39493.0	2.848299485242306	1777531.25	2.6115241779713845	36210.0	1.4386316E7	1975035.5224609375	-11550.0	-0.8330048123603836	3283.0	0.23677530727092116	128.0	128.0	128.0	128.0	
37198.0	2.6827803472018656	1777535.15625	2.609216285850559	36178.0	1.4386444E7	1975039.4287109375	-11756.0	-0.8478618678881965	1020.0	0.07356406135130661	128.0	128.0	128.0	128.0	
30583.0	2.2056957728500097	1777539.0625	2.2416123439803535	31081.0	1.4386572E7	1975043.3349609375	-16685.0	-1.2033493761240692	-498.0	-0.03591657113034381	128.0	128.0	128.0	128.0	
17513.0	1.263066084750424	1777542.96875	1.331293145572322	18459.0	1.43867E7	1975047.2412109375	-25481.0	-1.837731222835925	-946.0	-0.06822706082189808	128.0	128.0	128.0	128.0	
8648.0	0.6237078456530387	1777546.875	0.7931215516473713	10997.0	1.4386828E7	1975051.1474609375	-35344.0	-2.5490668474515497	-2349.0	-0.16941370599433256	128.0	128.0	128.0	128.0	
6451.0	0.4652566272326264	1777550.78125	0.5486292300974406	7607.0	1.4386956E7	1975055.0537109375	-33456.0	-2.412901212322857	-1156.0	-0.08337260286481415	128.0	128.0	128.0	128.0	
5123.0	0.3694791042183762	1777554.6875	0.36529604974938035	5065.0	1.4387084E7	1975058.9599609375	-29859.0	-2.153479713616337	58.0	0.004183054468995866	128.0	128.0	128.0	128.0	
5221.0	0.3765470238384037	1777558.59375	0.30406478691873395	4216.0	1.4387212E7	1975062.8662109375	-26442.0	-1.9070401080894601	1005.0	0.07248223691966975	128.0	128.0	128.0	128.0	
6741.0	0.4861718995776057	1777562.5	0.3838313083447586	5322.0	1.438734E7	1975066.7724609375	-24177.0	-1.7436846189122939	1419.0	0.10234059123284713	128.0	128.0	128.0	128.0	
8254.0	0.5952919239153772	1777566.40625	0.4872537240092426	6756.0	1.4387468E7	1975070.6787109375	-23049.0	-1.662331421653202	1498.0	0.1080381999061346	128.0	128.0	128.0	128.0	
9111.0	0.6571001597762299	1777570.3125	0.5630535558525988	7807.0	1.4387596E7	1975074.5849609375	-22473.0	-1.6207893634783463	1304.0	0.09404660392363119	128.0	128.0	128.0	128.0	
9266.0	0.6682790122364775	1777574.21875	0.5714196647905905	7923.0	1.4387724E7	1975078.4912109375	-21840.0	-1.5751363724632708	1343.0	0.09685934744588703	128.0	128.0	128.0	128.0	
9038.0	0.6518352808755972	1777578.125	0.532618228509215	7385.0	1.4387852E7	1975082.3974609375	-20701.0	-1.4929898372876451	1653.0	0.11921705236638218	128.0	128.0	128.0	128.0	
8812.0	0.6355357927722685	1777582.03125	0.5088902126419799	7056.0	1.438798E7	1975086.3037109375	-20201.0	-1.4569290228997498	1756.0	0.12664558013028862	128.0	128.0	128.0	128.0	
8654.0	0.6241405754256935	1777585.9375	0.5002356171888849	6936.0	1.4388108E7	1975090.2099609375	-20108.0	-1.4502217114236011	1718.0	0.12390495823680858	128.0	128.0	128.0	128.0	
8799.0	0.6345982115981832	1777589.84375	0.5127126589670967	7109.0	1.4388236E7	1975094.1162109375	-20764.0	-1.4975334999005199	1690.0	0.12188555263108643	128.0	128.0	128.0	128.0	
8824.0	0.6364012523175779	1777593.75	0.5293006335855286	7339.0	1.4388364E7	1975098.0224609375	-20796.0	-1.4998413920213451	1485.0	0.10710061873204932	128.0	128.0	128.0	128.0	
8866.0	0.6394303607261611	1777597.65625	0.5286515389265465	7330.0	1.4388492E7	1975101.9287109375	-20486.0	-1.47748368710085	1536.0	0.11077882179961465	128.0	128.0	128.0	128.0	
8890.0	0.6411612798167801	1777601.5625	0.5072314151801366	7033.0	1.438862E7	1975105.8349609375	-19552.0	-1.4101220858242616	1857.0	0.1339298646366435	128.0	128.0	128.0	128.0	
8950.0	0.6454885775433276	1777605.46875	0.49958652252990277	6927.0	1.4388748E7	1975109.7412109375	-19427.0	-1.4011068822272876	2023.0	0.14590205501342476	128.0	128.0	128.0	128.0	
8968.0	0.6467867668612918	1777609.375	0.5171120783224199	7170.0	1.4388876E7	1975113.6474609375	-19443.0	-1.4022608282877003	1798.0	0.12967468853887185	128.0	128.0	128.0	128.0	
9133.0	0.6586868356092973	1777613.28125	0.5320412554790087	7377.0	1.4389004E7	1975117.5537109375	-20057.0	-1.4465435083560358	1756.0	0.12664558013028862	128.0	128.0	128.0	128.0	
9186.0	0.6625092819344142	1777617.1875	0.5365127964631077	7439.0	1.4389132E7	1975121.4599609375	-19689.0	-1.4200027489665448	1747.0	0.1259964854713065	128.0	128.0	128.0	128.0	
9343.0	0.6738323776522134	1777621.09375	0.5334836880545245	7397.0	1.438926E7	1975125.3662109375	-19224.0	-1.386466191585802	1946.0	0.14034868959768887	128.0	128.0	128.0	128.0	
9484.0	0.6840015273095998	1777625.0	0.5300939715020623	7350.0	1.4389388E7	1975129.2724609375	-18886.0	-1.362089081059585	2134.0	0.15390755580753754	128.0	128.0	128.0	128.0	
9528.0	0.6871748789757346	1777628.90625	0.5378109857810719	7457.0	1.4389516E7	1975133.1787109375	-19158.0	-1.3817061640866	2071.0	0.14936389319466273	128.0	128.0	128.0	128.0	
9551.0	0.6888336764375779	1777632.8125	0.551586216877248	7648.0	1.4389644E7	1975137.0849609375	-19544.0	-1.4095451127940553	1903.0	0.13724745956032988	128.0	128.0	128.0	128.0	
9520.0	0.6865979059455283	1777636.71875	0.5451673919162026	7559.0	1.4389772E7	1975140.9912109375	-19238.0	-1.3874758943886631	1961.0	0.14143051402932574	128.0	128.0	128.0	128.0	
9605.0	0.6927282443914705	1777640.625	0.5369455262357624	7445.0	1.43899E7	1975144.8974609375	-18399.0	-1.3269658478457746	2160.0	0.1557827181557081	128.0	128.0	128.0	128.0	
9706.0	0.7000125288978254	1777644.53125	0.5337721745696276	7401.0	1.4390028E7	1975148.8037109375	-18351.0	-1.3235040096645367	2305.0	0.16624035432819778	128.0	128.0	128.0	128.0	
9901.0	0.7140762465091046	1777648.4375	0.5546153252858312	7690.0	1.4390156E7	1975152.7099609375	-18690.0	-1.34795324181953	2211.0	0.15946092122327343	128.0	128.0	128.0	128.0	
10037.0	0.7238847880226121	1777652.34375	0.5709148133891598	7916.0	1.4390284E7	1975156.6162109375	-19364.0	-1.3965632196144129	2121.0	0.15296997463345227	128.0	128.0	128.0	128.0	
9979.0	0.7197017335536163	1777656.25	0.5680299482381284	7876.0	1.4390412E7	1975160.5224609375	-18686.0	-1.3476647553044268	2103.0	0.15167178531548803	128.0	128.0	128.0	128.0	
10098.0	0.7282842073779354	1777660.15625	0.5585098932397239	7744.0	1.439054E7	1975164.4287109375	-18078.0	-1.303814805008746	2354.0	0.1697743141382115	128.0	128.0	128.0	128.0	
10149.0	0.7319624104455007	1777664.0625	0.5521631899074543	7656.0	1.4390668E7	1975168.3349609375	-17821.0	-1.2852795464133677	2493.0	0.17979922053804645	128.0	128.0	128.0	128.0	
10173.0	0.7336933295361197	1777667.96875	0.560529298845446	7772.0	1.4390796E7	1975172.2412109375	-18263.0	-1.3171573063322672	2401.0	0.17316403069067368	128.0	128.0	128.0	128.0	
10303.0	0.7430691412769725	1777671.875	0.5717081513056936	7927.0	1.4390924E7	1975176.1474609375	-18499.0	-1.3341780107233538	2376.0	0.1713609899712789	128.0	128.0	128.0	128.0	
10329.0	0.7449443036251431	1777675.78125	0.5781269762667389	8016.0	1.4391052E7	1975180.0537109375	-18381.0	-1.3256676585278104	2313.0	0.1668173273584041	128.0	128.0	128.0	128.0	
10501.0	0.757349223774579	1777679.6875	0.5747372597142768	7969.0	1.439118E7	1975183.9599609375	-17878.0	-1.2893904792535877	2532.0	0.18261196406030228	128.0	128.0	128.0	128.0	
10676.0	0.7699705088103425	1777683.59375	0.5675250968366977	7869.0	1.4391308E7	1975187.8662109375	-17307.0	-1.2482090292226111	2807.0	0.20244541197364474	128.0	128.0	128.0	128.0	
10759.0	0.7759566039987331	1777687.5	0.5771172734638779	8002.0	1.4391436E7	1975191.7724609375	-17108.0	-1.2338568250962287	2757.0	0.1988393305348552	128.0	128.0	128.0	128.0	
10924.0	0.7878566727467385	1777691.40625	0.5934888831959824	8229.0	1.4391564E7	1975195.6787109375	-17722.0	-1.2781395051645643	2695.0	0.19436778955075618	128.0	128.0	128.0	128.0	
11006.0	0.7937706463063534	1777695.3125	0.6004125595584583	8325.0	1.4391692E7	1975199.5849609375	-17676.0	-1.274821910240878	2681.0	0.1933580867478951	128.0	128.0	128.0	128.0	
11143.0	0.8036513094486367	1777699.21875	0.6002683163009067	8323.0	1.439182E7	1975203.4912109375	-17117.0	-1.2345059197552108	2820.0	0.20338299314773003	128.0	128.0	128.0	128.0	
11218.0	0.8090604316068211	1777703.125	0.5878633961514708	8151.0	1.4391948E7	1975207.3974609375	-16241.0	-1.1713273729476181	3067.0	0.22119703545535035	128.0	128.0	128.0	128.0	
11376.0	0.8204556489533961	1777707.03125	0.592984031794552	8222.0	1.4392076E7	1975211.3037109375	-16372.0	-1.1807753063172468	3154.0	0.22747161715884415	128.0	128.0	128.0	128.0	
11643.0	0.8397121238365322	1777710.9375	0.6117356552762575	8482.0	1.4392204E7	1975215.2099609375	-16868.0	-1.216547634190039	3161.0	0.22797646856027468	128.0	128.0	128.0	128.0	
11686.0	0.8428133538738911	1777714.84375	0.6172168990632175	8558.0	1.4392332E7	1975219.1162109375	-16486.0	-1.1889971719976868	3128.0	0.22559645481067359	128.0	128.0	128.0	128.0	
11724.0	0.8455539757673712	1777718.75	0.5994028567555972	8311.0	1.439246E7	1975223.0224609375	-15907.0	-1.1472387489365041	3413.0	0.24615111901177397	128.0	128.0	128.0	128.0	
11826.0	0.8529103819025019	1777722.65625	0.5928397885370003	8220.0	1.4392588E7	1975226.9287109375	-14916.0	-1.0757662148196954	3606.0	0.2600705933655016	128.0	128.0	128.0	128.0	
12173.0	0.8779365870877013	1777726.5625	0.6061822898605216	8405.0	1.4392716E7	1975230.8349609375	-15203.0	-1.0964651222783475	3768.0	0.2717542972271797	128.0	128.0	128.0	128.0	
12297.0	0.8868796690558993	1777730.46875	0.6274581703493798	8700.0	1.4392844E7	1975234.7412109375	-15362.0	-1.107932461253698	3597.0	0.2594214987065195	128.0	128.0	128.0	128.0	
12494.0	0.9010876299247301	1777734.375	0.6382042930369727	8849.0	1.4392972E7	1975238.6474609375	-15479.0	-1.1163706918204657	3645.0	0.26288333688775745	128.0	128.0	128.0	128.0	
12513.0	0.9024579408714701	1777738.28125	0.6309921301593936	8749.0	1.43931E7	1975242.5537109375	-14570.0	-1.0508121312632719	3764.0	0.27146581071207654	128.0	128.0	128.0	128.0	
12784.0	0.9220029022697095	1777742.1875	0.6213278319034377	8615.0	1.4393228E7	1975246.4599609375	-13912.0	-1.0033560995288016	4169.0	0.3006750703662718	128.0	128.0	128.0	128.0	
12993.0	0.9370763226838498	1777746.09375	0.6382764146657485	8850.0	1.4393356E7	1975250.3662109375	-14115.0	-1.0179967901702869	4143.0	0.29879990801810125	128.0	128.0	128.0	128.0	
13079.0	0.9432787827585677	1777750.0	0.6484455643231349	8991.0	1.4393484E7	1975254.2724609375	-14140.0	-1.0197998308896818	4088.0	0.29483321843543275	128.0	128.0	128.0	128.0	
13226.0	0.953880662188609	1777753.90625	0.6654662687142217	9227.0	1.4393612E7	1975258.1787109375	-14529.0	-1.0478551444834643	3999.0	0.28841439347438735	128.0	128.0	128.0	128.0	
13316.0	0.9603716087784302	1777757.8125	0.6651777821991185	9223.0	1.439374E7	1975262.0849609375	-14009.0	-1.0103518975200532	4093.0	0.2951938265793117	128.0	128.0	128.0	128.0	
13546.0	0.9769595833968621	1777761.71875	0.6617159440178806	9175.0	1.4393868E7	1975265.9912109375	-13439.0	-0.9692425691178524	4371.0	0.31524363937898153	128.0	128.0	128.0	128.0	
13709.0	0.9887154088873159	1777765.625	0.6685674987515806	9270.0	1.4393996E7	1975269.8974609375	-12999.0	-0.9375090524565045	4439.0	0.3201479101357353	128.0	128.0	128.0	128.0	
13914.0	1.0035003427863531	1777769.53125	0.6875354871196138	9533.0	1.4394124E7	1975273.8037109375	-13731.0	-0.9903020847203833	4381.0	0.31596485566673943	128.0	128.0	128.0	128.0	
14066.0	1.0144628303602732	1777773.4375	0.724966612454249	10052.0	1.4394252E7	1975277.7099609375	-14248.0	-1.0275889667974671	4014.0	0.2894962179060242	128.0	128.0	128.0	128.0	
14249.0	1.027661088426243	1777777.34375	0.7313854374152944	10141.0	1.439438E7	1975281.6162109375	-14196.0	-1.023838642101126	4108.0	0.29627565101094855	128.0	128.0	128.0	128.0	
14332.0	1.0336471836146335	1777781.25	0.7239569096513878	10038.0	1.4394508E7	1975285.5224609375	-13484.0	-0.972488042412763	4294.0	0.30969027396324567	128.0	128.0	128.0	128.0	
14501.0	1.0458357388777422	1777785.15625	0.7309527076426396	10135.0	1.4394636E7	1975289.4287109375	-13716.0	-0.9892202602887464	4366.0	0.3148830312351026	128.0	128.0	128.0	128.0	
14398.0	1.0384072111138358	1777789.0625	0.7450885468826947	10331.0	1.4394764E7	1975293.3349609375	-14322.0	-1.0329259673268756	4067.0	0.2933186642311411	128.0	128.0	128.0	128.0	
14473.0	1.04381633327202	1777792.96875	0.7694656574089118	10669.0	1.4394892E7	1975297.2412109375	-15088.0	-1.0881711349691314	3804.0	0.2743506758631082	128.0	128.0	128.0	128.0	
14465.0	1.0432393602418137	1777796.875	0.7714129413858583	10696.0	1.439502E7	1975301.1474609375	-15249.0	-1.0997827172020338	3769.0	0.2718264188559555	128.0	128.0	128.0	128.0	
14354.0	1.035233859447701	1777800.78125	0.7681674680909478	10651.0	1.4395148E7	1975305.0537109375	-14856.0	-1.071438917093148	3703.0	0.2670663913567533	128.0	128.0	128.0	128.0	
14357.0	1.0354502243340284	1777804.6875	0.7693935357801363	10668.0	1.4395276E7	1975308.9599609375	-15208.0	-1.0968257304222264	3689.0	0.2660566885538922	128.0	128.0	128.0	128.0	
14190.0	1.0234059123284713	1777808.59375	0.7781923744907826	10790.0	1.4395404E7	1975312.8662109375	-16608.0	-1.1977960107083334	3400.0	0.24521353783768868	128.0	128.0	128.0	128.0	
13958.0	1.0066736944524879	1777812.5	0.7918954839581829	10980.0	1.4395532E7	1975316.7724609375	-17431.0	-1.2571521111908093	2978.0	0.21477821049430498	128.0	128.0	128.0	128.0	
13576.0	0.9791232322601358	1777816.40625	0.7791299556648679	10803.0	1.439566E7	1975320.6787109375	-17827.0	-1.2857122761860225	2773.0	0.19999327659526786	128.0	128.0	128.0	128.0	
13218.0	0.9533036891584027	1777820.3125	0.7511467636998611	10415.0	1.4395788E7	1975324.5849609375	-17738.0	-1.279293451224977	2803.0	0.20215692545854158	128.0	128.0	128.0	128.0	
13071.0	0.9427018097283614	1777824.21875	0.740112154497165	10262.0	1.4395916E7	1975328.4912109375	-18064.0	-1.3028051022058849	2809.0	0.20258965523119632	128.0	128.0	128.0	128.0	
12679.0	0.9144301312482515	1777828.125	0.7275629910901775	10088.0	1.4396044E7	1975332.3974609375	-18837.0	-1.358555121249571	2591.0	0.18686714015807393	128.0	128.0	128.0	128.0	
12206.0	0.8803166008373023	1777832.03125	0.7251829773405764	10055.0	1.4396172E7	1975336.3037109375	-19917.0	-1.436446480327425	2151.0	0.155133623496726	128.0	128.0	128.0	128.0	
11835.0	0.853559476561484	1777835.9375	0.7147974627968625	9911.0	1.43963E7	1975340.2099609375	-20472.0	-1.476473984297989	1924.0	0.13876201376462147	128.0	128.0	128.0	128.0	
11433.0	0.8245665817936161	1777839.84375	0.681549391931223	9450.0	1.4396428E7	1975344.1162109375	-20287.0	-1.4631314829744677	1983.0	0.14301718986239315	128.0	128.0	128.0	128.0	
11058.0	0.7975209710026946	1777843.75	0.6528449836784582	9052.0	1.4396556E7	1975348.0224609375	-20389.0	-1.4704878891095985	2006.0	0.1446759873242363	128.0	128.0	128.0	128.0	
10826.0	0.780788753126711	1777847.65625	0.6420267393620895	8902.0	1.4396684E7	1975351.9287109375	-21008.0	-1.5151311773218128	1924.0	0.13876201376462147	128.0	128.0	128.0	128.0	
10618.0	0.7657874543413467	1777851.5625	0.6480128345504803	8985.0	1.4396812E7	1975355.8349609375	-21912.0	-1.5803291297351278	1633.0	0.11777461979086636	128.0	128.0	128.0	128.0	
10314.0	0.7438624791935062	1777855.46875	0.6354636711434927	8811.0	1.439694E7	1975359.7412109375	-22093.0	-1.5933831445435458	1503.0	0.10839880805001356	128.0	128.0	128.0	128.0	
10001.0	0.7212884093866837	1777859.375	0.6138993041395312	8512.0	1.4397068E7	1975363.6474609375	-21492.0	-1.5500380456492957	1489.0	0.10738910524715249	128.0	128.0	128.0	128.0	
9916.0	0.7151580709407415	1777863.28125	0.5894500719845381	8173.0	1.4397196E7	1975367.5537109375	-21594.0	-1.5573944517844263	1743.0	0.12570799895620335	128.0	128.0	128.0	128.0	
9795.0	0.7064313538588708	1777867.1875	0.5882240042953497	8156.0	1.4397324E7	1975371.4599609375	-21751.0	-1.5687175475022255	1639.0	0.11820734956352111	128.0	128.0	128.0	128.0	
9653.0	0.6961900825727085	1777871.09375	0.5940658562261888	8237.0	1.4397452E7	1975375.3662109375	-22692.0	-1.6365840001802445	1416.0	0.10212422634651976	128.0	128.0	128.0	128.0	
9559.0	0.6894106494677842	1777875.0	0.6004846811872342	8326.0	1.439758E7	1975379.2724609375	-22632.0	-1.6322567024536971	1233.0	0.08892596828055005	128.0	128.0	128.0	128.0	
9543.0	0.6882567034073716	1777878.90625	0.5862767203184034	8129.0	1.4397708E7	1975383.1787109375	-22221.0	-1.602614713026847	1414.0	0.10197998308896818	128.0	128.0	128.0	128.0	
9495.0	0.6847948652261335	1777882.8125	0.5786318276681695	8023.0	1.4397836E7	1975387.0849609375	-22003.0	-1.5868921979537247	1472.0	0.10616303755796404	128.0	128.0	128.0	128.0	
9526.0	0.687030635718183	1777886.71875	0.5775500032365326	8008.0	1.4397964E7	1975390.9912109375	-22169.0	-1.598864388330506	1518.0	0.10948063248165042	128.0	128.0	128.0	128.0	
9555.0	0.689122162952681	1777890.625	0.6069035061482795	8415.0	1.4398092E7	1975394.8974609375	-22879.0	-1.6500707447613174	1140.0	0.0822186568044015	128.0	128.0	128.0	128.0	
9473.0	0.6832081893930662	1777894.53125	0.6076247224360374	8425.0	1.439822E7	1975398.8037109375	-22882.0	-1.6502871096476448	1048.0	0.07558346695702875	128.0	128.0	128.0	128.0	
9463.0	0.6824869731053083	1777898.4375	0.5904597747873992	8187.0	1.4398348E7	1975402.7099609375	-22381.0	-1.6141541736309737	1276.0	0.09202719831790905	128.0	128.0	128.0	128.0	
9338.0	0.6734717695083344	1777902.34375	0.57639605717612	7992.0	1.4398476E7	1975406.6162109375	-21902.0	-1.57960791344737	1346.0	0.0970757123322144	128.0	128.0	128.0	128.0	
9435.0	0.6804675674995861	1777906.25	0.5735111920250884	7952.0	1.4398604E7	1975410.5224609375	-22106.0	-1.5943207257176313	1483.0	0.10695637547449774	128.0	128.0	128.0	128.0	
9418.0	0.6792414998103976	1777910.15625	0.5888009773255559	8164.0	1.4398732E7	1975414.4287109375	-22551.0	-1.6264148505228582	1254.0	0.09044052248484165	128.0	128.0	128.0	128.0	
9343.0	0.6738323776522134	1777914.0625	0.5963737483470141	8269.0	1.439886E7	1975418.3349609375	-22802.0	-1.6445173793455816	1074.0	0.07745862930519931	128.0	128.0	128.0	128.0	
9351.0	0.6744093506824197	1777917.96875	0.5888730989543318	8165.0	1.4398988E7	1975422.2412109375	-22356.0	-1.612351132911579	1186.0	0.08553625172808788	128.0	128.0	128.0	128.0	
9381.0	0.6765729995456934	1777921.875	0.5782712195242905	8018.0	1.4399116E7	1975426.1474609375	-21942.0	-1.5824927785984015	1363.0	0.09830178002140284	128.0	128.0	128.0	128.0	
9440.0	0.6808281756434651	1777925.78125	0.5800021386149096	8042.0	1.4399244E7	1975430.0537109375	-21919.0	-1.5808339811365584	1398.0	0.10082603702855553	128.0	128.0	128.0	128.0	
9379.0	0.6764287562881418	1777929.6875	0.5926955452794487	8218.0	1.4399372E7	1975433.9599609375	-22457.0	-1.6196354174179337	1161.0	0.0837332110086931	128.0	128.0	128.0	128.0	
9399.0	0.6778711888636576	1777933.59375	0.60740835754971	8422.0	1.43995E7	1975437.8662109375	-22814.0	-1.645382838890891	977.0	0.07046283131394761	128.0	128.0	128.0	128.0	
9419.0	0.6793136214391734	1777937.5	0.5970949646347719	8279.0	1.4399628E7	1975441.7724609375	-22470.0	-1.620572998592019	1140.0	0.0822186568044015	128.0	128.0	128.0	128.0	
9448.0	0.6814051486736714	1777941.40625	0.584690044485336	8107.0	1.4399756E7	1975445.6787109375	-21850.0	-1.5758575887510287	1341.0	0.09671510418833545	128.0	128.0	128.0	128.0	
9480.0	0.6837130407944967	1777945.3125	0.5807954765314433	8053.0	1.4399884E7	1975449.5849609375	-21957.0	-1.5835746030300384	1427.0	0.10291756426305346	128.0	128.0	128.0	128.0	
9507.0	0.685660324771443	1777949.21875	0.5983931539527362	8297.0	1.4400012E7	1975453.4912109375	-22409.0	-1.6161735792366958	1210.0	0.08726717081870686	128.0	128.0	128.0	128.0	
9541.0	0.68811246014982	1777953.125	0.6113750471323786	8477.0	1.440014E7	1975457.3974609375	-22757.0	-1.641271906050671	1064.0	0.0767374130174414	128.0	128.0	128.0	128.0	
9503.0	0.6853718382563398	1777957.03125	0.6070477494058311	8417.0	1.4400268E7	1975461.3037109375	-22282.0	-1.6070141323821703	1086.0	0.0783240888505088	128.0	128.0	128.0	128.0	
9520.0	0.6865979059455283	1777960.9375	0.5874306663788159	8145.0	1.4400396E7	1975465.2099609375	-21780.0	-1.5708090747367234	1375.0	0.09916723956671233	128.0	128.0	128.0	128.0	
9499.0	0.6850833517412367	1777964.84375	0.5823821523645106	8075.0	1.4400524E7	1975469.1162109375	-21772.0	-1.570232101706517	1424.0	0.10270119937672609	128.0	128.0	128.0	128.0	
9506.0	0.6855882031426672	1777968.75	0.5973834511498751	8283.0	1.4400652E7	1975473.0224609375	-22326.0	-1.6101874840483053	1223.0	0.08820475199279214	128.0	128.0	128.0	128.0	
9539.0	0.6879682168922683	1777972.65625	0.6108701957309479	8470.0	1.440078E7	1975476.9287109375	-22949.0	-1.6551192587756227	1069.0	0.07709802116132035	128.0	128.0	128.0	128.0	
9526.0	0.687030635718183	1777976.5625	0.6084901819813469	8437.0	1.4400908E7	1975480.8349609375	-22386.0	-1.6145147817748526	1089.0	0.07854045373683617	128.0	128.0	128.0	128.0	
9649.0	0.6959015960576054	1777980.46875	0.6012058974749921	8336.0	1.4401036E7	1975484.7412109375	-22282.0	-1.6070141323821703	1313.0	0.0946956985826133	128.0	128.0	128.0	128.0	
9697.0	0.6993634342388433	1777984.375	0.5963016267182383	8268.0	1.4401164E7	1975488.6474609375	-21824.0	-1.5739824264028581	1429.0	0.10306180752060504	128.0	128.0	128.0	128.0	
9681.0	0.6982094881784306	1777988.28125	0.6088507901252258	8442.0	1.4401292E7	1975492.5537109375	-22329.0	-1.6104038489346326	1239.0	0.08935869805320479	128.0	128.0	128.0	128.0	
9634.0	0.6948197716259684	1777992.1875	0.6175053855783207	8562.0	1.440142E7	1975496.4599609375	-22653.0	-1.6337712566579887	1072.0	0.07731438604764773	128.0	128.0	128.0	128.0	
9629.0	0.6944591634820895	1777996.09375	0.6234193591379356	8644.0	1.4401548E7	1975500.3662109375	-22867.0	-1.649205285216008	985.0	0.07103980434415393	128.0	128.0	128.0	128.0	
9662.0	0.6968391772316906	1778000.0	0.6076247224360374	8425.0	1.4401676E7	1975504.2724609375	-22186.0	-1.6000904560196945	1237.0	0.08921445479565321	128.0	128.0	128.0	128.0	
9757.0	0.7036907319653908	1778003.90625	0.5990422486117184	8306.0	1.4401804E7	1975508.1787109375	-21972.0	-1.5846564274616752	1451.0	0.10464848335367244	128.0	128.0	128.0	128.0	
9789.0	0.705998624086216	1778007.8125	0.6123847499352396	8491.0	1.4401932E7	1975512.0849609375	-22251.0	-1.6047783618901208	1298.0	0.09361387415097644	128.0	128.0	128.0	128.0	
9754.0	0.7034743670790633	1778011.71875	0.6290448461824472	8722.0	1.440206E7	1975515.9912109375	-23009.0	-1.6594465565021703	1032.0	0.0744295208966161	128.0	128.0	128.0	128.0	
9724.0	0.7013107182157896	1778015.625	0.6267369540616219	8690.0	1.4402188E7	1975519.8974609375	-22921.0	-1.6530998531699006	1034.0	0.07457376415416768	128.0	128.0	128.0	128.0	
9752.0	0.7033301238215117	1778019.53125	0.6157744664877017	8538.0	1.4402316E7	1975523.8037109375	-22508.0	-1.623313620485499	1214.0	0.08755565733381002	128.0	128.0	128.0	128.0	
9878.0	0.7124174490472615	1778023.4375	0.6119520201625849	8485.0	1.4402444E7	1975527.7099609375	-22078.0	-1.592301320111909	1393.0	0.10046542888467656	128.0	128.0	128.0	128.0	
9934.0	0.7164562602587057	1778027.34375	0.6213999535322134	8616.0	1.4402572E7	1975531.6162109375	-22837.0	-1.6470416363527343	1318.0	0.09505630672649226	128.0	128.0	128.0	128.0	
9841.0	0.7097489487825571	1778031.25	0.6333721439089947	8782.0	1.44027E7	1975535.5224609375	-23102.0	-1.6661538679783188	1059.0	0.07637680487356245	128.0	128.0	128.0	128.0	
9826.0	0.7086671243509203	1778035.15625	0.6299824273565325	8735.0	1.4402828E7	1975539.4287109375	-23146.0	-1.6693272196444535	1091.0	0.07868469699438775	128.0	128.0	128.0	128.0	
9897.0	0.7137877599940015	1778039.0625	0.6195247911840429	8590.0	1.4402956E7	1975543.3349609375	-22774.0	-1.6424979737398595	1307.0	0.09426296880995856	128.0	128.0	128.0	128.0	
9955.0	0.7179708144629973	1778042.96875	0.6133223311093248	8504.0	1.4403084E7	1975547.2412109375	-22460.0	-1.619851782304261	1451.0	0.10464848335367244	128.0	128.0	128.0	128.0	
9960.0	0.7183314226068762	1778046.875	0.6239963321681419	8652.0	1.4403212E7	1975551.1474609375	-22869.0	-1.6493495284735595	1308.0	0.09433509043873435	128.0	128.0	128.0	128.0	
9846.0	0.7101095569264361	1778050.78125	0.6351751846283894	8807.0	1.440334E7	1975555.0537109375	-23335.0	-1.682958207483078	1039.0	0.07493437229804663	128.0	128.0	128.0	128.0	
9768.0	0.7044840698819245	1778054.6875	0.6304872787579632	8742.0	1.4403468E7	1975558.9599609375	-23535.0	-1.6973825332382362	1026.0	0.07399679112396135	128.0	128.0	128.0	128.0	
9748.0	0.7030416373064086	1778058.59375	0.627386048720604	8699.0	1.4403596E7	1975562.8662109375	-23095.0	-1.6656490165768882	1049.0	0.07565558858580454	128.0	128.0	128.0	128.0	
9704.0	0.6998682856402738	1778062.5	0.6116635336474817	8481.0	1.4403724E7	1975566.7724609375	-22297.0	-1.6080959568138071	1223.0	0.08820475199279214	128.0	128.0	128.0	128.0	
9745.0	0.7028252724200812	1778066.40625	0.6069035061482795	8415.0	1.4403852E7	1975570.6787109375	-22627.0	-1.6318960943098182	1330.0	0.09592176627180175	128.0	128.0	128.0	128.0	
9746.0	0.702897394048857	1778070.3125	0.6222654130775229	8628.0	1.440398E7	1975574.5849609375	-23387.0	-1.686708532179419	1118.0	0.0806319809713341	128.0	128.0	128.0	128.0	
9742.0	0.7026089075337538	1778074.21875	0.6366897388326811	8828.0	1.4404108E7	1975578.4912109375	-23492.0	-1.6942813032008772	914.0	0.06591916870107278	128.0	128.0	128.0	128.0	
9721.0	0.7010943533294622	1778078.125	0.6265927108040703	8688.0	1.4404236E7	1975582.3974609375	-23141.0	-1.6689666115005746	1033.0	0.07450164252539189	128.0	128.0	128.0	128.0	
9635.0	0.6948918932547442	1778082.03125	0.611879898533809	8484.0	1.4404364E7	1975586.3037109375	-22642.0	-1.632977918741455	1151.0	0.08301199472093519	128.0	128.0	128.0	128.0	
9698.0	0.6994355558676191	1778085.9375	0.6120962634201365	8487.0	1.4404492E7	1975590.2099609375	-22797.0	-1.6441567712017027	1211.0	0.08733929244748265	128.0	128.0	128.0	128.0	
9656.0	0.6964064474590359	1778089.84375	0.628107265008362	8709.0	1.440462E7	1975594.1162109375	-23340.0	-1.683318815626957	947.0	0.06829918245067387	128.0	128.0	128.0	128.0	
9744.0	0.7027531507913054	1778093.75	0.6470031317476191	8971.0	1.4404748E7	1975598.0224609375	-23622.0	-1.70365711494173	773.0	0.05575001904368628	128.0	128.0	128.0	128.0	
9693.0	0.6990749477237401	1778097.65625	0.6332279006514432	8780.0	1.4404876E7	1975601.9287109375	-23219.0	-1.6745920985450864	913.0	0.065847047072297	128.0	128.0	128.0	128.0	
9606.0	0.6928003660202463	1778101.5625	0.613610817624428	8508.0	1.4405004E7	1975605.8349609375	-22731.0	-1.6393967437025003	1098.0	0.07918954839581828	128.0	128.0	128.0	128.0	
9694.0	0.6991470693525159	1778105.46875	0.6169284125481144	8554.0	1.4405132E7	1975609.7412109375	-22972.0	-1.656778056237466	1140.0	0.0822186568044015	128.0	128.0	128.0	128.0	
9706.0	0.7000125288978254	1778109.375	0.6306315220155146	8744.0	1.440526E7	1975613.6474609375	-23430.0	-1.6898097622167783	962.0	0.06938100688231073	128.0	128.0	128.0	128.0	
9699.0	0.6995076774963949	1778113.28125	0.6383485362945243	8851.0	1.4405388E7	1975617.5537109375	-23832.0	-1.7188026569846462	848.0	0.06115914120187059	128.0	128.0	128.0	128.0	
9777.0	0.7051331645409066	1778117.1875	0.6352473062571653	8808.0	1.4405516E7	1975621.4599609375	-23419.0	-1.6890164243002446	969.0	0.06988585828374128	128.0	128.0	128.0	128.0	
9731.0	0.7018155696172201	1778121.09375	0.6222654130775229	8628.0	1.4405644E7	1975625.3662109375	-22767.0	-1.641993122338429	1103.0	0.07955015653969724	128.0	128.0	128.0	128.0	
9846.0	0.7101095569264361	1778125.0	0.6270975622055008	8695.0	1.4405772E7	1975629.2724609375	-22961.0	-1.6559847183209324	1151.0	0.08301199472093519	128.0	128.0	128.0	128.0	
9793.0	0.7062871106013192	1778128.90625	0.6399352121275916	8873.0	1.44059E7	1975633.1787109375	-23492.0	-1.6942813032008772	920.0	0.06635189847372752	128.0	128.0	128.0	128.0	
9789.0	0.705998624086216	1778132.8125	0.6459213073159823	8956.0	1.4406028E7	1975637.0849609375	-23924.0	-1.7254378468320188	833.0	0.06007731677023373	128.0	128.0	128.0	128.0	
9724.0	0.7013107182157896	1778136.71875	0.6397188472412643	8870.0	1.4406156E7	1975640.9912109375	-23537.0	-1.6975267764957878	854.0	0.061591870974525335	128.0	128.0	128.0	128.0	
9728.0	0.7015992047308928	1778140.625	0.6307757652730662	8746.0	1.4406284E7	1975644.8974609375	-23135.0	-1.6685338817279198	982.0	0.07082343945782656	128.0	128.0	128.0	128.0	
9761.0	0.7039792184804939	1778144.53125	0.6254387647436578	8672.0	1.4406412E7	1975648.8037109375	-22773.0	-1.6424258521110837	1089.0	0.07854045373683617	128.0	128.0	128.0	128.0	
9708.0	0.700156772155377	1778148.4375	0.6323624411061336	8768.0	1.440654E7	1975652.7099609375	-23209.0	-1.6738708822573285	940.0	0.06779433104924334	128.0	128.0	128.0	128.0	
9696.0	0.6992913126100675	1778152.34375	0.6457049424296549	8953.0	1.4406668E7	1975656.6162109375	-23931.0	-1.7259426982334494	743.0	0.053586370180412554	128.0	128.0	128.0	128.0	
9667.0	0.6971997853755696	1778156.25	0.6475079831490498	8978.0	1.4406796E7	1975660.5224609375	-23558.0	-1.6990413307000793	689.0	0.04969180222651985	128.0	128.0	128.0	128.0	
9804.0	0.7070804485178529	1778160.15625	0.6338769953104253	8789.0	1.4406924E7	1975664.4287109375	-23222.0	-1.6748084634314138	1015.0	0.07320345320742765	128.0	128.0	128.0	128.0	
9758.0	0.7037628535941666	1778164.0625	0.628107265008362	8709.0	1.4407052E7	1975668.3349609375	-22919.0	-1.652955609912349	1049.0	0.07565558858580454	128.0	128.0	128.0	128.0	
9723.0	0.7012385965870138	1778167.96875	0.6412334014455559	8891.0	1.440718E7	1975672.2412109375	-23294.0	-1.6800012207032706	832.0	0.06000519514145794	128.0	128.0	128.0	128.0	
9803.0	0.7070083268890771	1778171.875	0.6527728620496824	9051.0	1.4407308E7	1975676.1474609375	-24029.0	-1.7330106178534768	752.0	0.054235464839394676	128.0	128.0	128.0	128.0	
9649.0	0.6959015960576054	1778175.78125	0.6483734426943593	8990.0	1.4407436E7	1975680.0537109375	-23529.0	-1.6969498034655814	659.0	0.04752815336324613	128.0	128.0	128.0	128.0	
9606.0	0.6928003660202463	1778179.6875	0.631208495045721	8752.0	1.4407564E7	1975683.9599609375	-23079.0	-1.6644950705164756	854.0	0.061591870974525335	128.0	128.0	128.0	128.0	
9674.0	0.6977046367770001	1778183.59375	0.6278187784932588	8705.0	1.4407692E7	1975687.8662109375	-22892.0	-1.6510083259354027	969.0	0.06988585828374128	128.0	128.0	128.0	128.0	
9801.0	0.7068640836315255	1778187.5	0.6400073337563674	8874.0	1.440782E7	1975691.7724609375	-23593.0	-1.701565587707232	927.0	0.06685674987515806	128.0	128.0	128.0	128.0	
9721.0	0.7010943533294622	1778191.40625	0.6532055918223372	9057.0	1.4407948E7	1975695.6787109375	-23946.0	-1.7270245226650862	664.0	0.04788876150712509	128.0	128.0	128.0	128.0	
9790.0	0.7060707457149918	1778195.3125	0.6528449836784582	9052.0	1.4408076E7	1975699.5849609375	-23864.0	-1.7211105491054715	738.0	0.053225762036533605	128.0	128.0	128.0	128.0	
9802.0	0.7069362052603013	1778199.21875	0.6413055230743316	8892.0	1.4408204E7	1975703.4912109375	-23334.0	-1.6828860858543022	910.0	0.06563068218596962	128.0	128.0	128.0	128.0	
9826.0	0.7086671243509203	1778203.125	0.6345260899694074	8798.0	1.4408332E7	1975707.3974609375	-22941.0	-1.6545422857454164	1028.0	0.07414103438151293	128.0	128.0	128.0	128.0	
9790.0	0.7060707457149918	1778207.03125	0.634670333226959	8800.0	1.440846E7	1975711.3037109375	-23027.0	-1.6607447458201345	990.0	0.07140041248803287	128.0	128.0	128.0	128.0	
9806.0	0.7072246917754045	1778210.9375	0.6541431729964224	9070.0	1.4408588E7	1975715.2099609375	-23801.0	-1.7165668864925965	736.0	0.05308151877898202	128.0	128.0	128.0	128.0	
9867.0	0.7116241111307278	1778214.84375	0.6568837948899026	9108.0	1.4408716E7	1975719.1162109375	-24108.0	-1.7387082265267644	759.0	0.05474031624082521	128.0	128.0	128.0	128.0	
9900.0	0.7140041248803288	1778218.75	0.6506813348151845	9022.0	1.4408844E7	1975723.0224609375	-23419.0	-1.6890164243002446	878.0	0.06332279006514431	128.0	128.0	128.0	128.0	
9800.0	0.7067919620027497	1778222.65625	0.6320018329622547	8763.0	1.4408972E7	1975726.9287109375	-23049.0	-1.662331421653202	1037.0	0.07479012904049505	128.0	128.0	128.0	128.0	
9949.0	0.7175380846903425	1778226.5625	0.6454885775433276	8950.0	1.44091E7	1975730.8349609375	-23271.0	-1.6783424232414275	999.0	0.072049507147015	128.0	128.0	128.0	128.0	
9891.0	0.7133550302213467	1778230.46875	0.6640959577674816	9208.0	1.4409228E7	1975734.7412109375	-23725.0	-1.7110856427056365	683.0	0.049259072453865106	128.0	128.0	128.0	128.0	
