Shimmer_8F60	Shimmer_8F60	Shimmer_8F60	Shimmer_8F60	Shimmer_8F60	Shimmer_8F60	Shimmer_8F60	Shimmer_8F60	Shimmer_8F60	Shimmer_8F60	Shimmer_8F60	Shimmer_8F60	Shimmer_8F60	Shimmer_8F60	Shimmer_8F60	
ECG_LL-RA_24BIT	ECG_LL-RA_24BIT	System_Timestamp_Plot_Zeroed	ECG_LL-LA_24BIT	ECG_LL-LA_24BIT	Timestamp	Timestamp	ECG_Vx-RL_24BIT	ECG_Vx-RL_24BIT	ECG_LA-RA_24BIT	ECG_LA-RA_24BIT	ECG_EMG_Status1	ECG_EMG_Status1	ECG_EMG_Status2	ECG_EMG_Status2	
CAL	UNCAL	CAL	UNCAL	CAL	CAL	UNCAL	CAL	UNCAL	CAL	UNCAL	UNCAL	CAL	UNCAL	CAL	
mV	no_units	ms	no_units	mV	ms	Ticks	mV	no_units	mV	no_units	no_units	no_units	no_units	no_units	
-605.0000721216288	-8388608.0	3.90625	-8446787.0	-609.1960363621755	116281.8603515625	3810324.0	-605.0000721216288	-8388608.0	4.195964240546732	58179.0	128.0	128.0	128.0	128.0	
-605.0000721216288	-8388608.0	7.8125	-8443017.0	-608.9241378216908	116285.7666015625	3810452.0	-605.0000721216288	-8388608.0	3.924065700062001	54409.0	128.0	128.0	128.0	128.0	
-605.0000721216288	-8388608.0	11.71875	-8436399.0	-608.4468368824527	116289.6728515625	3810580.0	-605.0000721216288	-8388608.0	3.4467647608238177	47791.0	128.0	128.0	128.0	128.0	
-605.0000721216288	-8388608.0	15.625	-8432181.0	-608.1426278522764	116293.5791015625	3810708.0	-605.0000721216288	-8388608.0	3.142555730647532	43573.0	128.0	128.0	128.0	128.0	
-605.0000721216288	-8388608.0	19.53125	-8429437.0	-607.9447261029155	116297.4853515625	3810836.0	-605.0000721216288	-8388608.0	2.9446539812867623	40829.0	128.0	128.0	128.0	128.0	
-605.0000721216288	-8388608.0	23.4375	-8425817.0	-607.6836458067472	116301.3916015625	3810964.0	-605.0000721216288	-8388608.0	2.6835736851183993	37209.0	128.0	128.0	128.0	128.0	
-605.0000721216288	-8388608.0	27.34375	-8421554.0	-607.3761913032761	116305.2978515625	3811092.0	-605.0000721216288	-8388608.0	2.376119181647203	32946.0	128.0	128.0	128.0	128.0	
-605.0000721216288	-8388608.0	31.25	-8417896.0	-607.1123703852141	116309.2041015625	3811220.0	-605.0000721216288	-8388608.0	2.1122982635853607	29288.0	128.0	128.0	128.0	128.0	
-605.0000721216288	-8388608.0	35.15625	-8416239.0	-606.9928648463327	116313.1103515625	3811348.0	-605.0000721216288	-8388608.0	1.9927927247038753	27631.0	128.0	128.0	128.0	128.0	
-605.0000721216288	-8388608.0	39.0625	-8415674.0	-606.9521161260743	116317.0166015625	3811476.0	-605.0000721216288	-8388608.0	1.9520440044455536	27066.0	128.0	128.0	128.0	128.0	
-605.0000721216288	-8388608.0	42.96875	-8414199.0	-606.8457367236301	116320.9228515625	3811604.0	-605.0000721216288	-8388608.0	1.8456646020012621	25591.0	128.0	128.0	128.0	128.0	
-605.0000721216288	-8388608.0	46.875	-8408201.0	-606.4131511942329	116324.8291015625	3811732.0	-605.0000721216288	-8388608.0	1.413079072604069	19593.0	128.0	128.0	128.0	128.0	
-605.0000721216288	-8388608.0	50.78125	-8400780.0	-605.8779365870878	116328.7353515625	3811860.0	-605.0000721216288	-8388608.0	0.8778644654589255	12172.0	128.0	128.0	128.0	128.0	
-598.1631580785702	-8293811.0	54.6875	-8300317.0	-598.6323813953854	116332.6416015625	3811988.0	-605.0000721216288	-8388608.0	0.4692233168152949	6506.0	128.0	128.0	128.0	128.0	
-605.0000721216288	-8388608.0	58.59375	-8394522.0	-605.4265994342088	116336.5478515625	3812116.0	-605.0000721216288	-8388608.0	0.42652731258002674	5914.0	128.0	128.0	128.0	128.0	
-556.04520869794	-7709826.0	62.5	-7714397.0	-556.3748766630741	116340.4541015625	3812244.0	-576.3936771623704	-7991967.0	0.3296679651341397	4571.0	128.0	128.0	128.0	128.0	
-348.98365187450077	-4838821.0	66.40625	-4834387.0	-348.6638645725089	116344.3603515625	3812372.0	-494.3440013341906	-6854310.0	-0.31978730199185634	-4434.0	128.0	128.0	128.0	128.0	
-150.19083979020593	-2082466.0	70.3125	-2064054.0	-148.86293636118606	116348.2666015625	3812500.0	-449.07065857299074	-6226574.0	-1.32790342901986	-18412.0	128.0	128.0	128.0	128.0	
-106.3073529371444	-1474001.0	74.21875	-1447137.0	-104.36987750171156	116352.1728515625	3812628.0	-444.1968231435804	-6158996.0	-1.9374754354328438	-26864.0	128.0	128.0	128.0	128.0	
-169.07697010957838	-2344331.0	78.125	-2318697.0	-167.22820427753976	116356.0791015625	3812756.0	-440.38382475183306	-6106127.0	-1.848765832038621	-25634.0	128.0	128.0	128.0	128.0	
-140.58106548560448	-1949222.0	82.03125	-1927083.0	-138.98436474613726	116359.9853515625	3812884.0	-400.10382295892515	-5547626.0	-1.5967007394672323	-22139.0	128.0	128.0	128.0	128.0	
-68.9973919388523	-956681.0	85.9375	-934078.0	-67.3672267636331	116363.8916015625	3813012.0	-373.2246688872181	-5174934.0	-1.6301651752191992	-22603.0	128.0	128.0	128.0	128.0	
120.32664362509772	1668385.0	89.84375	1697492.0	122.42588787387466	116367.7978515625	3813140.0	-336.537478153405	-4666249.0	-2.0992442487769427	-29107.0	128.0	128.0	128.0	128.0	
206.69474621948555	2865919.0	93.75	2901463.0	209.25823739269225	116371.7041015625	3813268.0	-345.7095462929662	-4793424.0	-2.5634911732067076	-35544.0	128.0	128.0	128.0	128.0	
136.48022967341302	1892362.0	97.65625	1925489.0	138.86940286986865	116375.6103515625	3813396.0	-378.0928067079552	-5242433.0	-2.3891731964556215	-33127.0	128.0	128.0	128.0	128.0	
81.68070157536287	1132541.0	101.5625	1157588.0	83.48713201131011	116379.5166015625	3813524.0	-373.06665039857035	-5172743.0	-1.8064304359472318	-25047.0	128.0	128.0	128.0	128.0	
172.89689217768816	2397296.0	105.46875	2418759.0	174.44483869610295	116383.4228515625	3813652.0	-333.00589835714084	-4617282.0	-1.5479465184147978	-21463.0	128.0	128.0	128.0	128.0	
343.2163737078159	4758855.0	109.375	4785156.0	345.11324466624797	116387.3291015625	3813780.0	-305.5388808892824	-4236439.0	-1.8968709584320735	-26301.0	128.0	128.0	128.0	128.0	
401.5565689273559	5567769.0	113.28125	5598828.0	403.79659459550317	116391.2353515625	3813908.0	-324.2310761488767	-4495615.0	-2.240025668147286	-31059.0	128.0	128.0	128.0	128.0	
303.5483960566993	4208840.0	117.1875	4235789.0	305.4920018305781	116395.1416015625	3814036.0	-362.643344121378	-5028219.0	-1.943605773878786	-26949.0	128.0	128.0	128.0	128.0	
209.81508848847014	2909184.0	121.09375	2925983.0	211.02665973027464	116399.0478515625	3814164.0	-370.46861296518006	-5136720.0	-1.2115712418045095	-16799.0	128.0	128.0	128.0	128.0	
236.83574519583527	3283838.0	125.0	3294413.0	237.59843142013926	116402.9541015625	3814292.0	-359.14219965245724	-4979674.0	-0.7626862243039876	-10575.0	128.0	128.0	128.0	128.0	
290.3054225808886	4025220.0	128.90625	4035399.0	291.0395486401974	116406.8603515625	3814420.0	-389.6763336272638	-5403044.0	-0.7341260593087744	-10179.0	128.0	128.0	128.0	128.0	
175.9205914641132	2439221.0	132.8125	2444625.0	176.31033674601755	116410.7666015625	3814548.0	-494.29906955946325	-6853687.0	-0.3897452819043734	-5404.0	128.0	128.0	128.0	128.0	
-60.76146254080088	-842486.0	136.71875	-851162.0	-61.38718979205964	116414.6728515625	3814676.0	-590.6058932072989	-8189026.0	0.6257272512587608	8676.0	128.0	128.0	128.0	128.0	
-265.0617706849302	-3675205.0	140.625	-3701796.0	-266.97955691570724	116418.5791015625	3814804.0	-605.0000721216288	-8388608.0	1.9177862307770528	26591.0	128.0	128.0	128.0	128.0	
-330.2437842182856	-4578984.0	144.53125	-4617431.0	-333.0166444798284	116422.4853515625	3814932.0	-605.0000721216288	-8388608.0	2.7728602615428284	38447.0	128.0	128.0	128.0	128.0	
-295.0156140346067	-4090529.0	148.4375	-4131196.0	-297.94858431203176	116426.3916015625	3815060.0	-605.0000721216288	-8388608.0	2.932970277425084	40667.0	128.0	128.0	128.0	128.0	
-359.57586700628605	-4985687.0	152.34375	-5026731.0	-362.5360271377596	116430.2978515625	3815188.0	-605.0000721216288	-8388608.0	2.960160131473557	41044.0	128.0	128.0	128.0	128.0	
-544.3638848500115	-7547859.0	156.25	-7595808.0	-547.8220448281819	116434.2041015625	3815316.0	-605.0000721216288	-8388608.0	3.4581599781703924	47949.0	128.0	128.0	128.0	128.0	
-605.0000721216288	-8388608.0	160.15625	-8446732.0	-609.1920696725929	116438.1103515625	3815444.0	-605.0000721216288	-8388608.0	4.1919975509640635	58124.0	128.0	128.0	128.0	128.0	
-605.0000721216288	-8388608.0	164.0625	-8449853.0	-609.4171612760022	116442.0166015625	3815572.0	-605.0000721216288	-8388608.0	4.417089154373307	61245.0	128.0	128.0	128.0	128.0	
-605.0000721216288	-8388608.0	167.96875	-8451259.0	-609.5185642860608	116445.9228515625	3815700.0	-605.0000721216288	-8388608.0	4.518492164432069	62651.0	128.0	128.0	128.0	128.0	
-605.0000721216288	-8388608.0	171.875	-8446901.0	-609.204258227856	116449.8291015625	3815828.0	-605.0000721216288	-8388608.0	4.204186106227173	58293.0	128.0	128.0	128.0	128.0	
-593.7877552256293	-8233144.0	175.78125	-8284600.0	-597.4988457559164	116453.7353515625	3815956.0	-605.0000721216288	-8388608.0	3.7110905302870907	51456.0	128.0	128.0	128.0	128.0	
-605.0000721216288	-8388608.0	179.6875	-8435581.0	-608.3878413901141	116457.6416015625	3816084.0	-605.0000721216288	-8388608.0	3.3877692684852208	46973.0	128.0	128.0	128.0	128.0	
-545.6465680177889	-7565644.0	183.59375	-7607058.0	-548.6334131519095	116461.5478515625	3816212.0	-605.0000721216288	-8388608.0	2.9868451341205997	41414.0	128.0	128.0	128.0	128.0	
-382.8145376222775	-5307902.0	187.5	-5336158.0	-384.85240636496627	116465.4541015625	3816340.0	-605.0000721216288	-8388608.0	2.0378687426887447	28256.0	128.0	128.0	128.0	128.0	
-266.5310325063506	-3695577.0	191.40625	-3708603.0	-267.47048884278405	116469.3603515625	3816468.0	-593.0148277300391	-8222427.0	0.9394563364334508	13026.0	128.0	128.0	128.0	128.0	
-283.5380337879698	-3931387.0	195.3125	-3935033.0	-283.8009892464864	116473.2666015625	3816596.0	-605.0000721216288	-8388608.0	0.26295545851653324	3646.0	128.0	128.0	128.0	128.0	
-348.5972963091489	-4833464.0	199.21875	-4836182.0	-348.7933228961615	116477.1728515625	3816724.0	-600.7668931206338	-8329913.0	0.19602658701259937	2718.0	128.0	128.0	128.0	128.0	
-312.9622158959169	-4339367.0	203.125	-4340842.0	-313.06859529836123	116481.0791015625	3816852.0	-551.6063388116764	-7648279.0	0.10637940244429141	1475.0	128.0	128.0	128.0	128.0	
-179.30352858347044	-2486127.0	207.03125	-2482046.0	-179.00920021643643	116484.9853515625	3816980.0	-513.028118971362	-7113374.0	-0.2943283670340022	-4081.0	128.0	128.0	128.0	128.0	
-89.9663948972696	-1247426.0	210.9375	-1236029.0	-89.1444246941119	116488.8916015625	3817108.0	-522.4752590030741	-7244363.0	-0.8219702031576877	-11397.0	128.0	128.0	128.0	128.0	
-112.99511945189471	-1566730.0	214.84375	-1553396.0	-112.03344965379831	116492.7978515625	3817236.0	-547.1746089666616	-7586831.0	-0.9616697980963944	-13334.0	128.0	128.0	128.0	128.0	
-167.56407470274863	-2323354.0	218.75	-2315057.0	-166.96568154879589	116496.7041015625	3817364.0	-534.40121941581	-7409722.0	-0.5983931539527362	-8297.0	128.0	128.0	128.0	128.0	
-101.58540565793582	-1408529.0	222.65625	-1403670.0	-101.23496666371426	116500.6103515625	3817492.0	-469.28094199668675	-6506799.0	-0.35043899422156743	-4859.0	128.0	128.0	128.0	128.0	
49.575830647448385	687392.0	226.5625	697106.0	50.27642014937641	116504.5166015625	3817620.0	-418.6681465707	-5805029.0	-0.7005895019280317	-9714.0	128.0	128.0	128.0	128.0	
124.89706336224836	1731756.0	230.46875	1748400.0	126.09745575159262	116508.4228515625	3817748.0	-431.836402039099	-5987613.0	-1.2003923893442618	-16644.0	128.0	128.0	128.0	128.0	
75.54632431820922	1047485.0	234.375	1063951.0	76.73387905763138	116512.3291015625	3817876.0	-469.55500418603475	-6510599.0	-1.187554739422171	-16466.0	128.0	128.0	128.0	128.0	
16.978368994995236	235413.0	238.28125	245739.0	17.723096933734052	116516.2353515625	3818004.0	-459.9445807867743	-6377346.0	-0.7447279387388157	-10326.0	128.0	128.0	128.0	128.0	
41.97060489304124	581942.0	242.1875	590088.0	42.55810768104883	116520.1416015625	3818132.0	-427.1566459127243	-5922726.0	-0.5875027880075918	-8146.0	128.0	128.0	128.0	128.0	
175.0285911594142	2426853.0	246.09375	2436672.0	175.73675343236368	116524.0478515625	3818260.0	-357.27186945341464	-4953741.0	-0.7081622729494897	-9819.0	128.0	128.0	128.0	128.0	
255.89338074843656	3548081.0	250.0	3563667.0	257.017468454536	116527.9541015625	3818388.0	-365.9028811338998	-5073414.0	-1.1240877060994752	-15586.0	128.0	128.0	128.0	128.0	
173.26456824118713	2402394.0	253.90625	2417170.0	174.33023742797823	116531.8603515625	3818516.0	-444.64787180994415	-6165250.0	-1.0656691867910848	-14776.0	128.0	128.0	128.0	128.0	
-28.74133452669794	-398512.0	257.8125	-395370.0	-28.514728369084406	116535.7666015625	3818644.0	-522.5649783092712	-7245607.0	-0.22660615761353467	-3142.0	128.0	128.0	128.0	128.0	
-137.0811470843729	-1900694.0	261.71875	-1911835.0	-137.884654150564	116539.6728515625	3818772.0	-525.875649556595	-7291511.0	0.8035070661910851	11141.0	128.0	128.0	128.0	128.0	
-145.26889923440208	-2014221.0	265.625	-2033002.0	-146.6234155444402	116543.5791015625	3818900.0	-518.3452860528572	-7187099.0	1.3545163100381268	18781.0	128.0	128.0	128.0	128.0	
-174.59506804884293	-2420842.0	269.53125	-2441714.0	-176.10039068465125	116547.4853515625	3819028.0	-573.785686944209	-7955806.0	1.5053226358083054	20872.0	128.0	128.0	128.0	128.0	
-364.10445619874673	-5048478.0	273.4375	-5076734.0	-366.1423249414355	116551.3916015625	3819156.0	-605.0000721216288	-8388608.0	2.0378687426887447	28256.0	128.0	128.0	128.0	128.0	
-580.5788952802295	-8049997.0	277.34375	-8092669.0	-583.65646942335	116555.2978515625	3819284.0	-605.0000721216288	-8388608.0	3.0775741431205446	42672.0	128.0	128.0	128.0	128.0	
-605.0000721216288	-8388608.0	281.25	-8442767.0	-608.9061074144969	116559.2041015625	3819412.0	-605.0000721216288	-8388608.0	3.9060352928680535	54159.0	128.0	128.0	128.0	128.0	
-577.7993277072105	-8011457.0	285.15625	-8065876.0	-581.7241146235602	116563.1103515625	3819540.0	-605.0000721216288	-8388608.0	3.924786916349759	54419.0	128.0	128.0	128.0	128.0	
-553.0561999149561	-7668382.0	289.0625	-7716489.0	-556.525755110473	116567.0166015625	3819668.0	-605.0000721216288	-8388608.0	3.4695551955169677	48107.0	128.0	128.0	128.0	128.0	
-605.0000721216288	-8388608.0	292.96875	-8434722.0	-608.3258889109957	116570.9228515625	3819796.0	-605.0000721216288	-8388608.0	3.3258167893668165	46114.0	128.0	128.0	128.0	128.0	
-605.0000721216288	-8388608.0	296.875	-8437062.0	-608.494653522331	116574.8291015625	3819924.0	-605.0000721216288	-8388608.0	3.4945814007021667	48454.0	128.0	128.0	128.0	128.0	
-605.0000721216288	-8388608.0	300.78125	-8437194.0	-608.5041735773294	116578.7353515625	3820052.0	-605.0000721216288	-8388608.0	3.5041014557005714	48586.0	128.0	128.0	128.0	128.0	
-605.0000721216288	-8388608.0	304.6875	-8432007.0	-608.1300786888694	116582.6416015625	3820180.0	-605.0000721216288	-8388608.0	3.1300065672405446	43399.0	128.0	128.0	128.0	128.0	
-605.0000721216288	-8388608.0	308.59375	-8423514.0	-607.5175496956766	116586.5478515625	3820308.0	-605.0000721216288	-8388608.0	2.5174775740477533	34906.0	128.0	128.0	128.0	128.0	
-605.0000721216288	-8388608.0	312.5	-8420167.0	-607.276158604164	116590.4541015625	3820436.0	-605.0000721216288	-8388608.0	2.2760864825351814	31559.0	128.0	128.0	128.0	128.0	
-605.0000721216288	-8388608.0	316.40625	-8423007.0	-607.4809840298873	116594.3603515625	3820564.0	-605.0000721216288	-8388608.0	2.4809119082584274	34399.0	128.0	128.0	128.0	128.0	
-605.0000721216288	-8388608.0	320.3125	-8424958.0	-607.6216933276288	116598.2666015625	3820692.0	-605.0000721216288	-8388608.0	2.621621205999995	36350.0	128.0	128.0	128.0	128.0	
-605.0000721216288	-8388608.0	324.21875	-8425397.0	-607.6533547226613	116602.1728515625	3820820.0	-605.0000721216288	-8388608.0	2.653282601032567	36789.0	128.0	128.0	128.0	128.0	
-605.0000721216288	-8388608.0	328.125	-8421753.0	-607.3905435074024	116606.0791015625	3820948.0	-605.0000721216288	-8388608.0	2.3904713857735858	33145.0	128.0	128.0	128.0	128.0	
-605.0000721216288	-8388608.0	332.03125	-8419769.0	-607.2474541959112	116609.9853515625	3821076.0	-605.0000721216288	-8388608.0	2.2473820742824167	31161.0	128.0	128.0	128.0	128.0	
-605.0000721216288	-8388608.0	335.9375	-8420248.0	-607.2820004560948	116613.8916015625	3821204.0	-605.0000721216288	-8388608.0	2.2819283344660204	31640.0	128.0	128.0	128.0	128.0	
-605.0000721216288	-8388608.0	339.84375	-8420422.0	-607.2945496195018	116617.7978515625	3821332.0	-605.0000721216288	-8388608.0	2.2944774978730083	31814.0	128.0	128.0	128.0	128.0	
-605.0000721216288	-8388608.0	343.75	-8418697.0	-607.1701398098636	116621.7041015625	3821460.0	-605.0000721216288	-8388608.0	2.170067688234769	30089.0	128.0	128.0	128.0	128.0	
-605.0000721216288	-8388608.0	347.65625	-8414874.0	-606.8944188230537	116625.6103515625	3821588.0	-605.0000721216288	-8388608.0	1.894346701424921	26266.0	128.0	128.0	128.0	128.0	
-605.0000721216288	-8388608.0	351.5625	-8412711.0	-606.7384197400118	116629.5166015625	3821716.0	-605.0000721216288	-8388608.0	1.7383476183828854	24103.0	128.0	128.0	128.0	128.0	
-605.0000721216288	-8388608.0	355.46875	-8412599.0	-606.7303421175889	116633.4228515625	3821844.0	-605.0000721216288	-8388608.0	1.7302699959599968	23991.0	128.0	128.0	128.0	128.0	
-605.0000721216288	-8388608.0	359.375	-8412816.0	-606.7459925110331	116637.3291015625	3821972.0	-605.0000721216288	-8388608.0	1.7459203894043434	24208.0	128.0	128.0	128.0	128.0	
-605.0000721216288	-8388608.0	363.28125	-8411838.0	-606.6754575580904	116641.2353515625	3822100.0	-605.0000721216288	-8388608.0	1.67538543646162	23230.0	128.0	128.0	128.0	128.0	
-605.0000721216288	-8388608.0	367.1875	-8409606.0	-606.5144820826629	116645.1416015625	3822228.0	-605.0000721216288	-8388608.0	1.514409961034055	20998.0	128.0	128.0	128.0	128.0	
-605.0000721216288	-8388608.0	371.09375	-8407651.0	-606.3734842984062	116649.0478515625	3822356.0	-605.0000721216288	-8388608.0	1.373412176777384	19043.0	128.0	128.0	128.0	128.0	
-605.0000721216288	-8388608.0	375.0	-8407647.0	-606.3731958118912	116652.9541015625	3822484.0	-605.0000721216288	-8388608.0	1.3731236902622808	19039.0	128.0	128.0	128.0	128.0	
-605.0000721216288	-8388608.0	378.90625	-8408299.0	-606.4202191138529	116656.8603515625	3822612.0	-605.0000721216288	-8388608.0	1.4201469922240963	19691.0	128.0	128.0	128.0	128.0	
-605.0000721216288	-8388608.0	382.8125	-8405157.0	-606.1936129562393	116660.7666015625	3822740.0	-605.0000721216288	-8388608.0	1.1935408346105618	16549.0	128.0	128.0	128.0	128.0	
-605.0000721216288	-8388608.0	386.71875	-8397014.0	-605.6063265331181	116664.6728515625	3822868.0	-605.0000721216288	-8388608.0	0.6062544114892974	8406.0	128.0	128.0	128.0	128.0	
-568.102718961563	-7877009.0	390.625	-7877475.0	-568.1363276405725	116668.5791015625	3822996.0	-605.0000721216288	-8388608.0	0.033608679009518506	466.0	128.0	128.0	128.0	128.0	
-605.0000721216288	-8388608.0	394.53125	-8388855.0	-605.0178861639364	116672.4853515625	3823124.0	-605.0000721216288	-8388608.0	0.017814042307620324	247.0	128.0	128.0	128.0	128.0	
-605.0000721216288	-8388608.0	398.4375	-8390474.0	-605.1346510809244	116676.3916015625	3823252.0	-605.0000721216288	-8388608.0	0.1345789592956256	1866.0	128.0	128.0	128.0	128.0	
-504.2734186975263	-6991986.0	402.34375	-6993039.0	-504.3493627726272	116680.2978515625	3823380.0	-590.7151574748942	-8190541.0	0.0759440751009077	1053.0	128.0	128.0	128.0	128.0	
-341.8757768721315	-4740267.0	406.25	-4733513.0	-341.3886673913798	116684.2041015625	3823508.0	-503.2090477000532	-6977228.0	-0.48710948075169097	-6754.0	128.0	128.0	128.0	128.0	
-302.398200320983	-4192892.0	410.15625	-4178528.0	-301.36224524524755	116688.1103515625	3823636.0	-529.3920116891875	-7340267.0	-1.035955075735459	-14364.0	128.0	128.0	128.0	128.0	
-400.28246823340277	-5550103.0	414.0625	-5537576.0	-399.37900058972843	116692.0166015625	3823764.0	-605.0000721216288	-8388608.0	-0.9034676436743312	-12527.0	128.0	128.0	128.0	128.0	
-467.74814102031485	-6485546.0	417.96875	-6481422.0	-467.4507114232435	116695.9228515625	3823892.0	-605.0000721216288	-8388608.0	-0.29742959707136124	-4124.0	128.0	128.0	128.0	128.0	
-396.49492877661334	-5497587.0	421.875	-5497584.0	-396.494712411727	116699.8291015625	3824020.0	-522.4187877677426	-7243580.0	-2.1636488632737237E-4	-3.0	128.0	128.0	128.0	128.0	
-284.5545881455646	-3945482.0	425.78125	-3942502.0	-284.33966569181274	116703.7353515625	3824148.0	-458.58443898969165	-6358487.0	-0.21492245375185656	-2980.0	128.0	128.0	128.0	128.0	
-300.99002551913566	-4173367.0	429.6875	-4167427.0	-300.56162304420747	116707.6416015625	3824276.0	-510.25021019580487	-7074857.0	-0.4284024749281973	-5940.0	128.0	128.0	128.0	128.0	
-438.77053603774743	-6083758.0	433.59375	-6083492.0	-438.75135168449305	116711.5478515625	3824404.0	-605.0000721216288	-8388608.0	-0.01918435325436035	-266.0	128.0	128.0	128.0	128.0	
-521.0756666750511	-7224957.0	437.5	-7235061.0	-521.8043836122017	116715.4541015625	3824532.0	-605.0000721216288	-8388608.0	0.7287169371505902	10104.0	128.0	128.0	128.0	128.0	
-432.2105690491878	-5992801.0	441.40625	-6007349.0	-433.259794504618	116719.3603515625	3824660.0	-517.8382710025634	-7180069.0	1.0492254554302043	14548.0	128.0	128.0	128.0	128.0	
-291.922966471072	-4047648.0	445.3125	-4056871.0	-292.58814425327114	116723.2666015625	3824788.0	-440.46431248954684	-6107243.0	0.6651777821991185	9223.0	128.0	128.0	128.0	128.0	
-265.6705493534266	-3683646.0	449.21875	-3685955.0	-265.8370781942699	116727.1728515625	3824916.0	-472.542931144587	-6552028.0	0.16652884084330094	2309.0	128.0	128.0	128.0	128.0	
-362.19114150895376	-5021949.0	453.125	-5025223.0	-362.4272677215657	116731.0791015625	3825044.0	-550.2030682805859	-7628822.0	0.23612621261193903	3274.0	128.0	128.0	128.0	128.0	
-423.54400140571613	-5872635.0	457.03125	-5882471.0	-424.2533897463548	116734.9853515625	3825172.0	-550.1018816354134	-7627419.0	0.7093883406386782	9836.0	128.0	128.0	128.0	128.0	
-327.15315606035665	-4536131.0	460.9375	-4547824.0	-327.99647426563195	116738.8916015625	3825300.0	-450.0998342156213	-6240844.0	0.8433182052753216	11693.0	128.0	128.0	128.0	128.0	
-187.4061772115442	-2598474.0	464.84375	-2603987.0	-187.80378375098513	116742.7978515625	3825428.0	-375.2842462401684	-5203491.0	0.3976065394409346	5513.0	128.0	128.0	128.0	128.0	
-160.01135349409026	-2218632.0	468.75	-2216517.0	-159.85881624922945	116746.7041015625	3825556.0	-408.6313401021171	-5665864.0	-0.1525372448607975	-2115.0	128.0	128.0	128.0	128.0	
-262.80782554242916	-3643953.0	472.65625	-3643034.0	-262.7415457655842	116750.6103515625	3825684.0	-491.374176904461	-6813132.0	-0.06627977684495173	-919.0	128.0	128.0	128.0	128.0	
-309.79694185220507	-4295479.0	476.5625	-4297933.0	-309.9739283292209	116754.5166015625	3825812.0	-507.577094146859	-7037793.0	0.1769864770157906	2454.0	128.0	128.0	128.0	128.0	
-293.5511843623143	-4070224.0	480.46875	-4078663.0	-294.1598187875532	116758.4228515625	3825940.0	-455.50607150865454	-6315804.0	0.6086344252388984	8439.0	128.0	128.0	128.0	128.0	
-151.4070268162521	-2099329.0	484.375	-2105288.0	-151.83679960212706	116762.3291015625	3826068.0	-362.45907335985584	-5025664.0	0.42977278587493734	5959.0	128.0	128.0	128.0	128.0	
-47.21976127860085	-654724.0	488.28125	-652482.0	-47.05806458688553	116766.2353515625	3826196.0	-347.6095906030644	-4819769.0	-0.16169669171532294	-2242.0	128.0	128.0	128.0	128.0	
-103.73881324992338	-1438387.0	492.1875	-1432598.0	-103.32130114094034	116770.1416015625	3826324.0	-429.47362535877534	-5954852.0	-0.41751210898305285	-5789.0	128.0	128.0	128.0	128.0	
-215.48399275350485	-2987786.0	496.09375	-2987942.0	-215.49524372759387	116774.0478515625	3826452.0	-490.0950998181224	-6795397.0	0.011250974089023364	156.0	128.0	128.0	128.0	128.0	
-204.8055922753325	-2839725.0	500.0	-2846352.0	-205.28354230922966	116777.9541015625	3826580.0	-436.54168922206037	-6052854.0	0.47795003389716556	6627.0	128.0	128.0	128.0	128.0	
-67.12432111791624	-930710.0	503.90625	-935319.0	-67.45672970494385	116781.8603515625	3826708.0	-336.4603080106149	-4665179.0	0.3324085870276198	4609.0	128.0	128.0	128.0	128.0	
22.999371051713354	318897.0	507.8125	321879.0	23.214437748722762	116785.7666015625	3826836.0	-321.83065197833207	-4462332.0	-0.21506669700940814	-2982.0	128.0	128.0	128.0	128.0	
-47.70600529980723	-661466.0	511.71875	-656442.0	-47.343666236837656	116789.6728515625	3826964.0	-407.92548572128845	-5656077.0	-0.3623390629695729	-5024.0	128.0	128.0	128.0	128.0	
-163.9918904294837	-2273824.0	515.625	-2275218.0	-164.09242797999715	116793.5791015625	3827092.0	-468.6461274202022	-6497997.0	0.10053755051345235	1394.0	128.0	128.0	128.0	128.0	
-149.2880212411906	-2069948.0	519.53125	-2077985.0	-149.86766277166163	116797.4853515625	3827220.0	-412.0370676561675	-5713086.0	0.5796415304710306	8037.0	128.0	128.0	128.0	128.0	
-14.5764302702463	-202109.0	523.4375	-208195.0	-15.015362502975764	116801.3916015625	3827348.0	-313.37648253160506	-4345111.0	0.43893223272946275	6086.0	128.0	128.0	128.0	128.0	
69.11314715303745	958286.0	527.34375	959335.0	69.18880274162325	116805.2978515625	3827476.0	-301.06669081052434	-4174430.0	-0.07565558858580454	-1049.0	128.0	128.0	128.0	128.0	
-16.20399906682957	-224676.0	531.25	-222056.0	-16.015040399436998	116809.2041015625	3827604.0	-394.1135447160655	-5464568.0	-0.18895866739257186	-2620.0	128.0	128.0	128.0	128.0	
-141.8441315703549	-1966735.0	535.15625	-1971362.0	-142.1778383467005	116813.1103515625	3827732.0	-460.3343981903074	-6382751.0	0.333706776345584	4627.0	128.0	128.0	128.0	128.0	
-132.5758531780068	-1838226.0	539.0625	-1849722.0	-133.4049634224133	116817.0166015625	3827860.0	-408.55380935118313	-5664789.0	0.829110244406491	11496.0	128.0	128.0	128.0	128.0	
4.155215520288411	57614.0	542.96875	48629.0	3.5072026857379304	116820.9228515625	3827988.0	-310.4621196344042	-4304702.0	0.6480128345504802	8985.0	128.0	128.0	128.0	128.0	
89.07035578135918	1235002.0	546.875	1233326.0	88.94947993153096	116824.8291015625	3828116.0	-298.3296028768543	-4136479.0	0.12087584982822536	1676.0	128.0	128.0	128.0	128.0	
10.03723919835558	139171.0	550.78125	139473.0	10.059019930245869	116828.7353515625	3828244.0	-387.4171236058621	-5371719.0	-0.02178073189028882	-302.0	128.0	128.0	128.0	128.0	
-57.82351587099026	-801750.0	554.6875	-804074.0	-57.9911265362652	116832.6416015625	3828372.0	-430.8714867677077	-5974234.0	0.1676106652749378	2324.0	128.0	128.0	128.0	128.0	
-126.13755537719196	-1748956.0	558.59375	-1759032.0	-126.86425290873683	116836.5478515625	3828500.0	-434.29647079664124	-6021723.0	0.7266975315448679	10076.0	128.0	128.0	128.0	128.0	
-27.108861459357914	-375877.0	562.5	-387773.0	-27.96682035527472	116840.4541015625	3828628.0	-335.5146492141067	-4652067.0	0.8579588959168072	11896.0	128.0	128.0	128.0	128.0	
107.39242284207617	1489046.0	566.40625	1483966.0	107.02604496789516	116844.3603515625	3828756.0	-266.32353858036265	-3692700.0	0.3663778741810172	5080.0	128.0	128.0	128.0	128.0	
108.13880957827683	1499395.0	570.3125	1500534.0	108.22095611345246	116848.2666015625	3828884.0	-314.56793183898117	-4361631.0	-0.08214653517562572	-1139.0	128.0	128.0	128.0	128.0	
-15.359671158751388	-212969.0	574.21875	-214285.0	-15.454583222220329	116852.1728515625	3829012.0	-406.58250887185443	-5637456.0	0.09491206346894068	1316.0	128.0	128.0	128.0	128.0	
-79.530611578299	-1102729.0	578.125	-1112258.0	-80.21785857890352	116856.0791015625	3829140.0	-407.54331321040553	-5650778.0	0.6872470006045104	9529.0	128.0	128.0	128.0	128.0	
25.756869406326942	357131.0	582.03125	345731.0	24.934682838282928	116859.9853515625	3829268.0	-304.7283780251	-4225201.0	0.822186568044015	11400.0	128.0	128.0	128.0	128.0	
164.4959484929977	2280813.0	585.9375	2276576.0	164.19036915187468	116863.8916015625	3829396.0	-232.78892848359686	-3227727.0	0.3055793411230256	4237.0	128.0	128.0	128.0	128.0	
161.21520772161577	2235324.0	589.84375	2237656.0	161.3833953599209	116867.7978515625	3829524.0	-282.4890246974259	-3916842.0	-0.16818763830514413	-2332.0	128.0	128.0	128.0	128.0	
38.2799247836977	530769.0	593.75	530218.0	38.24018576624224	116871.7041015625	3829652.0	-373.088647495347	-5173048.0	0.039739017455460726	551.0	128.0	128.0	128.0	128.0	
-20.73345371883556	-287479.0	597.65625	-295891.0	-21.34014086009751	116875.6103515625	3829780.0	-370.3188884638415	-5134644.0	0.6066871412619521	8412.0	128.0	128.0	128.0	128.0	
91.18409647752006	1264310.0	601.5625	1254313.0	90.46309655464847	116879.5166015625	3829908.0	-263.831447819644	-3658146.0	0.7209999228715805	9997.0	128.0	128.0	128.0	128.0	
233.4970186349176	3237545.0	605.46875	3235001.0	233.31354121131199	116883.4228515625	3830036.0	-191.14777519080346	-2650353.0	0.18347742360561176	2544.0	128.0	128.0	128.0	128.0	
233.96097707283226	3243978.0	609.375	3247864.0	234.24124172225498	116887.3291015625	3830164.0	-240.14886857853756	-3329776.0	-0.280264649422723	-3886.0	128.0	128.0	128.0	128.0	
112.43098407161047	1558908.0	613.28125	1559849.0	112.49885052428849	116891.2353515625	3830292.0	-332.2702577436278	-4607082.0	-0.06786645267801913	-941.0	128.0	128.0	128.0	128.0	
62.90116702332104	872154.0	617.1875	865420.0	62.41549997514486	116895.1416015625	3830420.0	-325.80599615645366	-4517452.0	0.4856670481761752	6734.0	128.0	128.0	128.0	128.0	
189.87215994264602	2632666.0	621.09375	2624927.0	189.31401065755017	116899.0478515625	3830548.0	-214.06233120707648	-2968074.0	0.5581492850958449	7739.0	128.0	128.0	128.0	128.0	
341.6754229873923	4737489.0	625.0	4737497.0	341.67599996042253	116902.9541015625	3830676.0	-140.251830250243	-1944657.0	-5.769730302063263E-4	-8.0	128.0	128.0	128.0	128.0	
347.6333907405604	4820099.0	628.90625	4827235.0	348.14805068350444	116906.8603515625	3830804.0	-189.31379429266386	-2624924.0	-0.514659942944043	-7136.0	128.0	128.0	128.0	128.0	
295.64494736730427	4099255.0	632.8125	4106415.0	296.1613382293389	116910.7666015625	3830932.0	-238.40323667564832	-3305572.0	-0.516390862034662	-7160.0	128.0	128.0	128.0	128.0	
204.61317176975868	2837057.0	636.71875	2838788.0	204.73801430916959	116914.6728515625	3831060.0	-287.1985670564851	-3982142.0	-0.12484253941089385	-1731.0	128.0	128.0	128.0	128.0	
273.5160843749147	3792428.0	640.625	3789850.0	273.3301548159307	116918.5791015625	3831188.0	-207.76935848824485	-2880819.0	0.18592955898398866	2578.0	128.0	128.0	128.0	128.0	
477.53951758617376	6621308.0	644.53125	6624600.0	477.77694198810366	116922.4853515625	3831316.0	-81.53415042569047	-1130509.0	-0.23742440192990327	-3292.0	128.0	128.0	128.0	128.0	
605.0	8388607.0	648.4375	8404230.0	606.1267562063642	116926.3916015625	3831444.0	-40.59120662107547	-562816.0	-1.1267562063641794	-15623.0	128.0	128.0	128.0	128.0	
605.0	8388607.0	652.34375	8413625.0	606.8043389087127	116930.2978515625	3831572.0	-45.99275600823832	-637711.0	-1.804338908712734	-25018.0	128.0	128.0	128.0	128.0	
605.0	8388607.0	656.25	8418120.0	607.1285256300599	116934.2041015625	3831700.0	-63.02290833269458	-873842.0	-2.1285256300599134	-29513.0	128.0	128.0	128.0	128.0	
605.0	8388607.0	660.15625	8412186.0	606.7005558849044	116938.1103515625	3831828.0	-67.14314486302672	-930971.0	-1.700555884904371	-23579.0	128.0	128.0	128.0	128.0	
605.0	8388607.0	664.0625	8405549.0	606.2218846347195	116942.0166015625	3831956.0	-67.9189572237679	-941728.0	-1.2218846347194476	-16942.0	128.0	128.0	128.0	128.0	
487.98547005480174	6766146.0	667.96875	6775257.0	488.642570214578	116945.9228515625	3832084.0	-165.46043103461636	-2294186.0	-0.6571001597762299	-9111.0	128.0	128.0	128.0	128.0	
190.30301455295262	2638640.0	671.875	2630910.0	189.74551436251576	116949.8291015625	3832212.0	-362.2820868828401	-5023210.0	0.5575001904368628	7730.0	128.0	128.0	128.0	128.0	
-143.63029582861614	-1991501.0	675.78125	-2024423.0	-146.00468409117272	116953.7353515625	3832340.0	-523.3198032760386	-7256073.0	2.374388262556584	32922.0	128.0	128.0	128.0	128.0	
-326.15600242090255	-4522305.0	679.6875	-4578436.0	-330.2042615657165	116957.6416015625	3832468.0	-555.7063091643225	-7705127.0	4.048259144813913	56131.0	128.0	128.0	128.0	128.0	
-317.89086376319693	-4407705.0	683.59375	-4473943.0	-322.6680562100478	116961.5478515625	3832596.0	-512.079863796218	-7100226.0	4.77719244685083	66238.0	128.0	128.0	128.0	128.0	
-319.08671248992835	-4424286.0	687.5	-4489589.0	-323.7964712138738	116965.4541015625	3832724.0	-535.3667116602315	-7423109.0	4.709758723945466	65303.0	128.0	128.0	128.0	128.0	
-463.98707020128614	-6433397.0	691.40625	-6499292.0	-468.7395249294669	116969.3603515625	3832852.0	-605.0000721216288	-8388608.0	4.752454728180734	65895.0	128.0	128.0	128.0	128.0	
-568.5469881948219	-7883169.0	695.3125	-7953569.0	-573.6243508606376	116973.2666015625	3832980.0	-605.0000721216288	-8388608.0	5.077362665815672	70400.0	128.0	128.0	128.0	128.0	
-463.6532913033118	-6428769.0	699.21875	-6496963.0	-468.5715536560481	116977.1728515625	3833108.0	-571.9276174220583	-7930043.0	4.918262352736277	68194.0	128.0	128.0	128.0	128.0	
-235.62215454842504	-3267011.0	703.125	-3320436.0	-239.47525256577165	116981.0791015625	3833236.0	-424.68474920806284	-5888452.0	3.853098017346623	53425.0	128.0	128.0	128.0	128.0	
-93.74751552909798	-1299853.0	707.03125	-1333314.0	-96.16077734956471	116984.9853515625	3833364.0	-384.74061784036377	-5334608.0	2.4132618204667358	33461.0	128.0	128.0	128.0	128.0	
-97.47894435869985	-1351591.0	710.9375	-1377437.0	-99.34299997603894	116988.8916015625	3833492.0	-413.90162812490803	-5738939.0	1.8640556173390888	25846.0	128.0	128.0	128.0	128.0	
-179.43240993409276	-2487914.0	714.84375	-2507569.0	-180.84996054768092	116992.7978515625	3833620.0	-485.1118558778591	-6726302.0	1.417550613588168	19655.0	128.0	128.0	128.0	128.0	
-189.62514336408896	-2629241.0	718.75	-2648927.0	-191.04492974816918	116996.7041015625	3833748.0	-457.8662518103423	-6348529.0	1.4197863840802174	19686.0	128.0	128.0	128.0	128.0	
-40.838078956375	-566239.0	722.65625	-580668.0	-41.878721937980885	117000.6103515625	3833876.0	-334.04978681204165	-4631756.0	1.0406429816058853	14429.0	128.0	128.0	128.0	128.0	
104.70315154828448	1451758.0	726.5625	1448330.0	104.45591860484107	117004.5166015625	3834004.0	-264.65666349609654	-3669588.0	0.24723294344341082	3428.0	128.0	128.0	128.0	128.0	
87.55767673941574	1214028.0	730.46875	1218315.0	87.86686216197755	117008.4228515625	3834132.0	-327.73164364476725	-4544152.0	-0.30918542256181514	-4287.0	128.0	128.0	128.0	128.0	
-30.995279669198954	-429764.0	734.375	-428333.0	-30.8920736184208	117012.3291015625	3834260.0	-419.32200125718134	-5814095.0	-0.10320605077815662	-1431.0	128.0	128.0	128.0	128.0	
-46.894420611193254	-650213.0	738.28125	-655442.0	-47.271544608061866	117016.2353515625	3834388.0	-397.64844210725335	-5513581.0	0.37712399686861003	5229.0	128.0	128.0	128.0	128.0	
81.76126143470543	1133658.0	742.1875	1129115.0	81.43361287517702	117020.1416015625	3834516.0	-287.4799856519682	-3986044.0	0.32764855952841754	4543.0	128.0	128.0	128.0	128.0	
163.425663521965	2265973.0	746.09375	2267095.0	163.50658398945143	117024.0478515625	3834644.0	-252.22008195162798	-3497149.0	-0.08092046748643726	-1122.0	128.0	128.0	128.0	128.0	
101.59550268596443	1408669.0	750.0	1412567.0	101.87663279493246	117027.9541015625	3834772.0	-335.59181935689685	-4653137.0	-0.2811301089680325	-3898.0	128.0	128.0	128.0	128.0	
-47.473196682118974	-658238.0	753.90625	-660866.0	-47.66273232254175	117031.8603515625	3834900.0	-440.96844267468964	-6114233.0	0.1895356404227782	2628.0	128.0	128.0	128.0	128.0	
-94.90211068416961	-1315862.0	757.8125	-1328261.0	-95.79634675936065	117035.7666015625	3835028.0	-434.2850034576659	-6021564.0	0.89423607519103	12399.0	128.0	128.0	128.0	128.0	
39.36131648556191	545763.0	761.71875	531682.0	38.34577183077	117039.6728515625	3835156.0	-321.34952859276876	-4455661.0	1.01554465479191	14081.0	128.0	128.0	128.0	128.0	
242.57201106214657	3363374.0	765.625	3359203.0	242.27119174852274	117043.5791015625	3835284.0	-225.61708159650345	-3128286.0	0.30081931362382336	4171.0	128.0	128.0	128.0	128.0	
282.139667527636	3911998.0	769.53125	3918027.0	282.5744888275252	117047.4853515625	3835412.0	-261.54418248464856	-3626432.0	-0.4348212998892427	-6029.0	128.0	128.0	128.0	128.0	
140.4129499689281	1946891.0	773.4375	1951815.0	140.7680768690201	117051.3916015625	3835540.0	-365.69517084302555	-5070534.0	-0.3551269000919938	-4924.0	128.0	128.0	128.0	128.0	
64.34612385584401	892189.0	777.34375	888635.0	64.08980358717486	117055.2978515625	3835668.0	-373.5694102727664	-5179714.0	0.25632026866916047	3554.0	128.0	128.0	128.0	128.0	
126.65394623922661	1756116.0	781.25	1748936.0	126.13611294461643	117059.2041015625	3835796.0	-295.50986355660723	-4097382.0	0.5178332946101779	7180.0	128.0	128.0	128.0	128.0	
155.73122331276218	2159286.0	785.15625	2153747.0	155.33174161097307	117063.1103515625	3835924.0	-283.38340501587453	-3929243.0	0.3994817017891052	5539.0	128.0	128.0	128.0	128.0	
119.83852444154316	1661617.0	789.0625	1656380.0	119.46082347164435	117067.0166015625	3836052.0	-324.09628082469476	-4493746.0	0.37770096989881635	5237.0	128.0	128.0	128.0	128.0	
-26.801839685659374	-371620.0	792.96875	-382191.0	-27.564237423448258	117070.9228515625	3836180.0	-442.7065018065574	-6138332.0	0.7623977377888844	10571.0	128.0	128.0	128.0	128.0	
-125.55849081975113	-1740927.0	796.875	-1761303.0	-127.02804112768663	117074.8291015625	3836308.0	-485.5990374802396	-6733057.0	1.4695503079355132	20376.0	128.0	128.0	128.0	128.0	
-53.20556798047638	-737720.0	800.78125	-762734.0	-55.009618402674015	117078.7353515625	3836436.0	-396.0670311530866	-5491654.0	1.8040504221976308	25014.0	128.0	128.0	128.0	128.0	
90.88132987991928	1260112.0	804.6875	1240747.0	89.4846945386761	117082.6416015625	3836564.0	-294.53016335131684	-4083798.0	1.3966353412431887	19365.0	128.0	128.0	128.0	128.0	
110.83248029142383	1536744.0	808.59375	1525595.0	110.02839625220254	117086.5478515625	3836692.0	-317.32189623378474	-4399816.0	0.8040840392212915	11149.0	128.0	128.0	128.0	128.0	
-20.454198772215697	-283607.0	812.5	-295220.0	-21.291747247188955	117090.4541015625	3836820.0	-428.7067560800023	-5944219.0	0.8375484749732585	11613.0	128.0	128.0	128.0	128.0	
-109.65394075559864	-1520403.0	816.40625	-1539081.0	-111.00102853787286	117094.3603515625	3836948.0	-467.2466793354368	-6478593.0	1.3470877822742204	18678.0	128.0	128.0	128.0	128.0	
2.6366225047853598	36558.0	820.3125	15850.0	1.143127816096284	117098.2666015625	3837076.0	-357.99243664651357	-4963732.0	1.4934946886890756	20708.0	128.0	128.0	128.0	128.0	
260.84561238832623	3616746.0	824.21875	3606442.0	260.1024711254205	117102.1728515625	3837204.0	-203.5096387278603	-2821756.0	0.7431412629057483	10304.0	128.0	128.0	128.0	128.0	
562.0145716684547	7792594.0	828.125	7804729.0	562.8897676336488	117106.0791015625	3837332.0	-90.58815545894569	-1256047.0	-0.8751959651942213	-12135.0	128.0	128.0	128.0	128.0	
401.04371202513124	5560658.0	832.03125	5580790.0	402.49566465564544	117109.9853515625	3837460.0	-227.5605431271247	-3155233.0	-1.45195263051422	-20132.0	128.0	128.0	128.0	128.0	
309.9009412408997	4296921.0	835.9375	4310938.0	310.91187011145	117113.8916015625	3837588.0	-273.50129944101565	-3792223.0	-1.0109288705502595	-14017.0	128.0	128.0	128.0	128.0	
355.73877999052763	4932484.0	839.84375	4941148.0	356.3636417822411	117117.7978515625	3837716.0	-202.73339363734647	-2810993.0	-0.6248617917134514	-8664.0	128.0	128.0	128.0	128.0	
605.0	8388607.0	843.75	8402360.0	605.9918887605535	117121.7041015625	3837844.0	-33.17054011470558	-459925.0	-0.9918887605534508	-13753.0	128.0	128.0	128.0	128.0	
605.0	8388607.0	847.65625	8415853.0	606.9650258976252	117125.6103515625	3837972.0	-31.823163845916255	-441243.0	-1.9650258976251957	-27246.0	128.0	128.0	128.0	128.0	
484.0633516387167	6711764.0	851.5625	6735436.0	485.7706148350972	117129.5166015625	3838100.0	-214.31187204264072	-2971534.0	-1.7072631963805196	-23672.0	128.0	128.0	128.0	128.0	
220.16410948802348	3052678.0	855.46875	3057004.0	220.47610765410755	117133.4228515625	3838228.0	-342.2350147050637	-4745248.0	-0.31199816608407094	-4326.0	128.0	128.0	128.0	128.0	
197.6670655807335	2740746.0	859.375	2728866.0	196.8102606308771	117137.3291015625	3838356.0	-301.1514337243359	-4175605.0	0.8568049498563945	11880.0	128.0	128.0	128.0	128.0	
290.8115721716371	4032238.0	863.28125	4016515.0	289.67760380239537	117141.2353515625	3838484.0	-226.64192994140745	-3142496.0	1.1339683692417586	15723.0	128.0	128.0	128.0	128.0	
305.92978011724716	4241859.0	867.1875	4226751.0	304.84016654970253	117145.1416015625	3838612.0	-229.55081159482143	-3182829.0	1.0896135675446472	15108.0	128.0	128.0	128.0	128.0	
193.30522159400246	2680267.0	871.09375	2663763.0	192.1149262326868	117149.0478515625	3838740.0	-335.78748533576555	-4655850.0	1.1902953613156513	16504.0	128.0	128.0	128.0	128.0	
2.8079113731278627	38933.0	875.0	13296.0	0.9589291762029142	117152.9541015625	3838868.0	-454.87125693217007	-6307002.0	1.8489821969249485	25637.0	128.0	128.0	128.0	128.0	
-51.46880703792656	-713639.0	878.90625	-749363.0	-54.04528010431291	117156.8603515625	3838996.0	-443.72017129900115	-6152387.0	2.57647306638635	35724.0	128.0	128.0	128.0	128.0	
72.3912194241547	1003738.0	882.8125	968269.0	69.83313737310617	117160.7666015625	3839124.0	-331.4631445959979	-4595891.0	2.5580820510485234	35469.0	128.0	128.0	128.0	128.0	
167.75440368108795	2325993.0	886.71875	2299510.0	165.8444065862187	117164.6728515625	3839252.0	-287.515757979841	-3986540.0	1.9099970948692675	26483.0	128.0	128.0	128.0	128.0	
72.90371571823546	1010844.0	890.625	988985.0	71.32720903482544	117168.5791015625	3839380.0	-384.49843341093464	-5331250.0	1.5765066834100108	21859.0	128.0	128.0	128.0	128.0	
-107.86280010495187	-1495568.0	894.53125	-1523179.0	-109.85415039708023	117172.4853515625	3839508.0	-498.2302031791453	-6908194.0	1.9913502921283595	27611.0	128.0	128.0	128.0	128.0	
-143.341160218854	-1987492.0	898.4375	-2023152.0	-145.91301750099868	117176.3916015625	3839636.0	-476.3815327145497	-6605252.0	2.5718572821446997	35660.0	128.0	128.0	128.0	128.0	
3.680006108284725	51025.0	902.34375	17530.0	1.2642921524396122	117180.2978515625	3839764.0	-352.6720240917235	-4889962.0	2.4157139558451126	33495.0	128.0	128.0	128.0	128.0	
116.70404633331852	1618156.0	906.25	1595135.0	115.04373431727103	117184.2041015625	3839892.0	-299.5273267659339	-4153086.0	1.6603120160474798	23021.0	128.0	128.0	128.0	128.0	
33.06149221199658	458413.0	910.15625	441310.0	31.82799599504423	117188.1103515625	3840020.0	-391.46127181783584	-5427793.0	1.2334962169523498	17103.0	128.0	128.0	128.0	128.0	
-128.78802523470227	-1785706.0	914.0625	-1807494.0	-130.3594112824692	117192.0166015625	3840148.0	-495.9626991704344	-6876754.0	1.5713860477669297	21788.0	128.0	128.0	128.0	128.0	
-134.39800612902715	-1863491.0	917.96875	-1891663.0	-136.42981665489873	117195.9228515625	3840276.0	-460.14926196924	-6380184.0	2.031810525871578	28172.0	128.0	128.0	128.0	128.0	
48.1359944505685	667428.0	921.875	643540.0	46.41315298237241	117199.8291015625	3840404.0	-320.1972413298179	-4439684.0	1.7228414681960904	23888.0	128.0	128.0	128.0	128.0	
194.9623602583838	2703244.0	925.78125	2691462.0	194.11262322814744	117203.7353515625	3840532.0	-253.19394030498748	-3510652.0	0.849737030236367	11782.0	128.0	128.0	128.0	128.0	
150.51935380927966	2087021.0	929.6875	2082920.0	150.22358300967014	117207.6416015625	3840660.0	-328.2516405882407	-4551362.0	0.295770799609518	4101.0	128.0	128.0	128.0	128.0	
32.97054683811031	457152.0	933.59375	449943.0	32.45062201626563	117211.5478515625	3840788.0	-413.4532479588089	-5732722.0	0.5199248218446758	7209.0	128.0	128.0	128.0	128.0	
70.70364543242997	980339.0	937.5	968375.0	69.8407822657564	117215.4541015625	3840916.0	-359.42369036956916	-4983577.0	0.862863166673561	11964.0	128.0	128.0	128.0	128.0	
287.0078774700019	3979498.0	941.40625	3973190.0	286.55293423568423	117219.3603515625	3841044.0	-206.3535387937473	-2861188.0	0.4549432343176883	6308.0	128.0	128.0	128.0	128.0	
395.00633835868103	5476947.0	945.3125	5477003.0	395.0103771698925	117223.2666015625	3841172.0	-148.87433157853266	-2064212.0	-0.004038811211444284	-56.0	128.0	128.0	128.0	128.0	
465.11570156999846	6449046.0	949.21875	6461189.0	465.9914745082229	117227.1728515625	3841300.0	-155.40263717205968	-2154730.0	-0.8757729382244276	-12143.0	128.0	128.0	128.0	128.0	
350.61150915759913	4861392.0	953.125	4875196.0	351.60707612122013	117231.0791015625	3841428.0	-265.71432718209354	-3684253.0	-0.995566963621016	-13804.0	128.0	128.0	128.0	128.0	
278.86606679750287	3866608.0	957.03125	3873767.0	279.38238553790876	117234.9853515625	3841556.0	-299.5002090335142	-4152710.0	-0.5163187404058862	-7159.0	128.0	128.0	128.0	128.0	
402.4440976910708	5580075.0	960.9375	5584085.0	402.73330542246174	117238.8916015625	3841684.0	-190.64119287028228	-2643329.0	-0.28920773139092104	-4010.0	128.0	128.0	128.0	128.0	
569.8301762140007	7900961.0	964.84375	7910905.0	570.5473536905472	117242.7978515625	3841812.0	-88.2605741334646	-1223774.0	-0.7171774765464636	-9944.0	128.0	128.0	128.0	128.0	
527.9756150216598	7320628.0	968.75	7336211.0	529.099486362873	117246.7041015625	3841940.0	-151.21684208117034	-2096692.0	-1.1238713412131478	-15583.0	128.0	128.0	128.0	128.0	
130.4621846034747	1808919.0	972.65625	1810669.0	130.58839745383233	117250.6103515625	3842068.0	-401.8250056296594	-5571491.0	-0.12621285035763388	-1750.0	128.0	128.0	128.0	128.0	
-74.41516869248971	-1031801.0	976.5625	-1052392.0	-75.90022515061202	117254.5166015625	3842196.0	-494.95032786730866	-6862717.0	1.4850564581223082	20591.0	128.0	128.0	128.0	128.0	
-54.20625557974048	-751595.0	980.46875	-785967.0	-56.68522020402196	117258.4228515625	3842324.0	-428.92283247981464	-5947215.0	2.478964624281481	34372.0	128.0	128.0	128.0	128.0	
46.64805312729516	646797.0	984.375	612188.0	44.15199567699381	117262.3291015625	3842452.0	-350.21462383444594	-4855889.0	2.4960574503013433	34609.0	128.0	128.0	128.0	128.0	
5.390370534702604	74740.0	988.28125	44242.0	3.1908051002985363	117266.2353515625	3842580.0	-404.5481740889757	-5609249.0	2.1995654344040676	30498.0	128.0	128.0	128.0	128.0	
-206.2093676578245	-2859189.0	992.1875	-2894510.0	-208.7567757078142	117270.1416015625	3842708.0	-552.8751746267288	-7665872.0	2.5474080499897065	35321.0	128.0	128.0	128.0	128.0	
-345.3132379428432	-4787929.0	996.09375	-4834080.0	-348.64172323247476	117274.0478515625	3842836.0	-605.0000721216288	-8388608.0	3.3284852896315207	46151.0	128.0	128.0	128.0	128.0	
-251.88349031013138	-3492482.0	1000.0	-3541955.0	-255.45156365055607	117277.9541015625	3842964.0	-506.06023205044653	-7016761.0	3.568073340424698	49473.0	128.0	128.0	128.0	128.0	
-79.49512773694131	-1102237.0	1003.90625	-1142030.0	-82.36506371081636	117281.8603515625	3843092.0	-391.78798279619014	-5432323.0	2.8699359738750427	39793.0	128.0	128.0	128.0	128.0	
-76.27929643145758	-1057648.0	1007.8125	-1086031.0	-78.32632462100085	117285.7666015625	3843220.0	-427.6687094770324	-5929826.0	2.04702818954327	28383.0	128.0	128.0	128.0	128.0	
-250.2896023141864	-3470382.0	1011.71875	-3498555.0	-252.32148496168676	117289.6728515625	3843348.0	-559.4810830928187	-7757466.0	2.0318826475003537	28173.0	128.0	128.0	128.0	128.0	
-347.5047257548244	-4818315.0	1015.625	-4853244.0	-350.023862126334	117293.5791015625	3843476.0	-594.9755263299378	-8249613.0	2.5191363715095965	34929.0	128.0	128.0	128.0	128.0	
-223.96088051329622	-3105322.0	1019.53125	-3140328.0	-226.48557025022154	117297.4853515625	3843604.0	-477.49934583894566	-6620751.0	2.5246897369253323	35006.0	128.0	128.0	128.0	128.0	
-118.87772010299207	-1648295.0	1023.4375	-1678842.0	-121.08081949720615	117301.3916015625	3843732.0	-404.12265647919855	-5603349.0	2.2030993942140813	30547.0	128.0	128.0	128.0	128.0	
8.354064625986174	115833.0	1027.34375	98440.0	7.099653136688845	117305.2978515625	3843860.0	-347.511288823043	-4818406.0	1.2544114892973293	17393.0	128.0	128.0	128.0	128.0	
-99.9690157138128	-1386117.0	1031.25	-1397617.0	-100.79841444473439	117309.2041015625	3843988.0	-453.23964932437536	-6284379.0	0.8293987309215941	11500.0	128.0	128.0	128.0	128.0	
-275.64727850523934	-3821978.0	1035.15625	-3839531.0	-276.9132294551408	117313.1103515625	3844116.0	-562.8136071936616	-7803673.0	1.2659509499014556	17553.0	128.0	128.0	128.0	128.0	
-269.13072873720273	-3731623.0	1039.0625	-3756609.0	-270.93275975379464	117317.0166015625	3844244.0	-518.2927815071084	-7186371.0	1.8020310165919087	24986.0	128.0	128.0	128.0	128.0	
-95.29257718236175	-1321276.0	1042.96875	-1342478.0	-96.82169995566608	117320.9228515625	3844372.0	-381.74389204310086	-5293057.0	1.5291227733043162	21202.0	128.0	128.0	128.0	128.0	
-6.310931004396797	-87504.0	1046.875	-98290.0	-7.088834892372477	117324.8291015625	3844500.0	-343.671821793535	-4765170.0	0.7779038879756794	10786.0	128.0	128.0	128.0	128.0	
-154.52188784144974	-2142518.0	1050.78125	-2151611.0	-155.177689811908	117328.7353515625	3844628.0	-468.25876215204744	-6492626.0	0.6558019704582656	9093.0	128.0	128.0	128.0	128.0	
-408.7684433184199	-5667765.0	1054.6875	-5688951.0	-410.2964121456638	117332.6416015625	3844756.0	-605.0000721216288	-8388608.0	1.5279688272439036	21186.0	128.0	128.0	128.0	128.0	
-434.0255098373306	-6017966.0	1058.59375	-6051460.0	-436.44115167154695	117336.5478515625	3844884.0	-584.4705062473424	-8103956.0	2.415641834216337	33494.0	128.0	128.0	128.0	128.0	
-261.91986404894163	-3631641.0	1062.5	-3664695.0	-264.3037723664966	117340.4541015625	3845012.0	-446.51647108989613	-6191159.0	2.383908317554989	33054.0	128.0	128.0	128.0	128.0	
-150.5097616326525	-2086888.0	1066.40625	-2111034.0	-152.25121048107275	117344.3603515625	3845140.0	-395.9000695824706	-5489339.0	1.7414488484202444	24146.0	128.0	128.0	128.0	128.0	
-276.7453303033507	-3837203.0	1070.3125	-3858109.0	-278.2531050745374	117348.2666015625	3845268.0	-508.1832764367195	-7046198.0	1.5077747711866822	20906.0	128.0	128.0	128.0	128.0	
-465.36805514908497	-6452545.0	1074.21875	-6481551.0	-467.46001511335555	117352.1728515625	3845396.0	-605.0000721216288	-8388608.0	2.0919599642705875	29006.0	128.0	128.0	128.0	128.0	
-458.70949789398884	-6360221.0	1078.125	-6396898.0	-461.3547028725985	117356.0791015625	3845524.0	-573.8834117512002	-7957161.0	2.6452049786096787	36677.0	128.0	128.0	128.0	128.0	
-243.4188632272319	-3375116.0	1082.03125	-3406089.0	-245.65268643530447	117359.9853515625	3845652.0	-414.425952366108	-5746209.0	2.233823208072568	30973.0	128.0	128.0	128.0	128.0	
-109.04076266774688	-1511901.0	1085.9375	-1527552.0	-110.16953827971678	117363.8916015625	3845780.0	-353.278206381584	-4898367.0	1.1287756119699017	15651.0	128.0	128.0	128.0	128.0	
-221.09757972926855	-3065621.0	1089.84375	-3073060.0	-221.63409252573166	117367.7978515625	3845908.0	-460.8386726187078	-6389743.0	0.5365127964631077	7439.0	128.0	128.0	128.0	128.0	
-391.8149562853523	-5432697.0	1093.75	-5445048.0	-392.7057305223621	117371.7041015625	3846036.0	-566.8585487435519	-7859758.0	0.8907742370097921	12351.0	128.0	128.0	128.0	128.0	
-366.0686166368266	-5075712.0	1097.65625	-5093670.0	-367.3637768463823	117375.6103515625	3846164.0	-512.371595784616	-7104271.0	1.295160209555651	17958.0	128.0	128.0	128.0	128.0	
-267.6928398242998	-3711686.0	1101.5625	-3728814.0	-268.92813908197155	117379.5166015625	3846292.0	-434.8272138628023	-6029082.0	1.2352992576717445	17128.0	128.0	128.0	128.0	128.0	
-69.77544007008554	-967469.0	1105.46875	-974773.0	-70.30221644666392	117383.4228515625	3846420.0	-311.270530971352	-4315911.0	0.526776376578376	7304.0	128.0	128.0	128.0	128.0	
-65.98811697818243	-914956.0	1109.375	-912552.0	-65.81473658260543	117387.3291015625	3846548.0	-347.79306802667	-4822313.0	-0.17338039557700105	-2404.0	128.0	128.0	128.0	128.0	
-249.20446028762584	-3455336.0	1113.28125	-3455777.0	-249.23626592591597	117391.2353515625	3846676.0	-485.4778010222675	-6731376.0	0.031805638290123735	441.0	128.0	128.0	128.0	128.0	
-348.2216868664845	-4828256.0	1117.1875	-4839876.0	-349.0597401928592	117395.1416015625	3846804.0	-524.6360230011968	-7274323.0	0.838053326374689	11620.0	128.0	128.0	128.0	128.0	
-207.2218832042078	-2873228.0	1121.09375	-2888506.0	-208.32375744864436	117399.0478515625	3846932.0	-400.4132247463733	-5551916.0	1.1018742444365317	15278.0	128.0	128.0	128.0	128.0	
-11.55806798435068	-160258.0	1125.0	-166747.0	-12.026065233476787	117402.9541015625	3847060.0	-279.7018122317567	-3878196.0	0.4679972491261064	6489.0	128.0	128.0	128.0	128.0	
-23.691017471673188	-328487.0	1128.90625	-326737.0	-23.564804621315552	117406.8603515625	3847188.0	-325.6465352352304	-4515241.0	-0.12621285035763388	-1750.0	128.0	128.0	128.0	128.0	
-226.62476499375882	-3142258.0	1132.8125	-3144906.0	-226.8157430667571	117410.7666015625	3847316.0	-473.082689414345	-6559512.0	0.190978072998294	2648.0	128.0	128.0	128.0	128.0	
-338.95852910977953	-4699818.0	1136.71875	-4713979.0	-339.97984349487353	117414.6728515625	3847444.0	-517.3028400305319	-7172645.0	1.0213143850939734	14161.0	128.0	128.0	128.0	128.0	
-201.64817948915714	-2795946.0	1140.625	-2813644.0	-202.9245880752311	117418.5791015625	3847572.0	-393.7183181903742	-5459088.0	1.2764085860739454	17698.0	128.0	128.0	128.0	128.0	
-7.757330269495282	-107559.0	1144.53125	-116705.0	-8.416954686278665	117422.4853515625	3847700.0	-273.2837084869991	-3789206.0	0.6596244167833826	9146.0	128.0	128.0	128.0	128.0	
-23.405055213577178	-324522.0	1148.4375	-325340.0	-23.464050705915774	117426.3916015625	3847828.0	-320.1968086000453	-4439678.0	0.05899549233859686	818.0	128.0	128.0	128.0	128.0	
-224.2365293784773	-3109144.0	1152.34375	-3114297.0	-224.60817213155894	117430.2978515625	3847956.0	-465.6801975584266	-6456873.0	0.37164275308164996	5153.0	128.0	128.0	128.0	128.0	
-325.4889494763553	-4513056.0	1156.25	-4529138.0	-326.64880951032757	117434.2041015625	3848084.0	-504.64455659920657	-6997132.0	1.1598600339722676	16082.0	128.0	128.0	128.0	128.0	
-173.31159154314895	-2403046.0	1160.15625	-2421993.0	-174.67808004356385	117438.1103515625	3848212.0	-374.21605279637015	-5188680.0	1.366488500414908	18947.0	128.0	128.0	128.0	128.0	
29.815514065684567	413406.0	1164.0625	404328.0	29.160793919657937	117442.0166015625	3848340.0	-250.09018601062132	-3467617.0	0.6547201460266288	9078.0	128.0	128.0	128.0	128.0	
13.67757841081362	189646.0	1167.96875	189737.0	13.684141479032217	117445.9228515625	3848468.0	-299.4119321598926	-4151486.0	-0.006563068218596962	-91.0	128.0	128.0	128.0	128.0	
-194.43911784161543	-2695989.0	1171.875	-2700086.0	-194.73460015470985	117449.8291015625	3848596.0	-452.21350279015337	-6270151.0	0.29548231309441486	4097.0	128.0	128.0	128.0	128.0	
-288.45189672135075	-3999520.0	1175.78125	-4014719.0	-289.548073357114	117453.7353515625	3848724.0	-486.4525248351723	-6744891.0	1.0961766357632443	15199.0	128.0	128.0	128.0	128.0	
-238.12405385065722	-3301701.0	1179.6875	-3319970.0	-239.44164388676214	117457.6416015625	3848852.0	-435.09096265923534	-6032739.0	1.317590036104922	18269.0	128.0	128.0	128.0	128.0	
-25.63830144861954	-355487.0	1183.59375	-369663.0	-26.66069765814515	117461.5478515625	3848980.0	-283.0315957107062	-3924365.0	1.0223962095256103	14176.0	128.0	128.0	128.0	128.0	
78.38229100493086	1086807.0	1187.5	1083759.0	78.16246428042226	117465.4541015625	3849108.0	-243.08739222137837	-3370520.0	0.21982672450861032	3048.0	128.0	128.0	128.0	128.0	
-75.56103713047948	-1047689.0	1191.40625	-1048883.0	-75.64715035523777	117469.3603515625	3849236.0	-374.478575525114	-5192320.0	0.08611322475829421	1194.0	128.0	128.0	128.0	128.0	
-275.9536511842789	-3826226.0	1195.3125	-3837797.0	-276.7881705508436	117473.2666015625	3849364.0	-496.2615712000813	-6880898.0	0.8345193665646752	11571.0	128.0	128.0	128.0	128.0	
-259.3156241554766	-3595532.0	1199.21875	-3616750.0	-260.84590087484133	117477.1728515625	3849492.0	-446.6771580788086	-6193387.0	1.5302767193647289	21218.0	128.0	128.0	128.0	128.0	
-52.51089245210797	-728088.0	1203.125	-745814.0	-53.78932044378764	117481.0791015625	3849620.0	-296.5173305889762	-4111351.0	1.2784279916796675	17726.0	128.0	128.0	128.0	128.0	
40.219635989622596	557664.0	1207.03125	550346.0	39.69184991024136	117484.9853515625	3849748.0	-261.16078390607646	-3621116.0	0.527786079381237	7318.0	128.0	128.0	128.0	128.0	
-131.48054200178888	-1823039.0	1210.9375	-1828630.0	-131.88377402827433	117488.8916015625	3849876.0	-400.62028594258857	-5554787.0	0.4032320264854463	5591.0	128.0	128.0	128.0	128.0	
-343.4796897744763	-4762506.0	1214.84375	-4779070.0	-344.6743124335185	117492.7978515625	3850004.0	-526.0249413281609	-7293581.0	1.1946226590421987	16564.0	128.0	128.0	128.0	128.0	
-329.4001054048664	-4567286.0	1218.75	-4594139.0	-331.3367875023827	117496.7041015625	3850132.0	-475.6097591650199	-6594551.0	1.9366820975163102	26853.0	128.0	128.0	128.0	128.0	
-114.62333734313695	-1589306.0	1222.65625	-1612180.0	-116.2730474797544	117500.6103515625	3850260.0	-320.9745682447634	-4450462.0	1.6497101366174385	22874.0	128.0	128.0	128.0	128.0	
-1.64163251419455	-22762.0	1226.5625	-33790.0	-2.4369898363339706	117504.5166015625	3850388.0	-276.2256218463924	-3829997.0	0.7953573221394208	11028.0	128.0	128.0	128.0	128.0	
-142.67288120661752	-1978226.0	1230.46875	-1985490.0	-143.19677271804485	117508.4228515625	3850516.0	-400.34312252320325	-5550944.0	0.5238915114273442	7264.0	128.0	128.0	128.0	128.0	
-353.9420138528364	-4907571.0	1234.375	-4924302.0	-355.14868082388415	117512.3291015625	3850644.0	-526.4575268575582	-7299579.0	1.2066669710477558	16731.0	128.0	128.0	128.0	128.0	
-311.82089112054007	-4323542.0	1238.28125	-4348915.0	-313.6508332074682	117516.2353515625	3850772.0	-462.5804099536431	-6413893.0	1.8299420869281398	25373.0	128.0	128.0	128.0	128.0	
-67.76779028985385	-939632.0	1242.1875	-959053.0	-69.16846444230848	117520.1416015625	3850900.0	-293.92600046706207	-4075421.0	1.400674152454633	19421.0	128.0	128.0	128.0	128.0	
37.22103503001154	516087.0	1246.09375	509561.0	36.75036928062073	117524.0478515625	3851028.0	-254.22282746110292	-3524918.0	0.4706657493908107	6526.0	128.0	128.0	128.0	128.0	
-128.40253512889566	-1780361.0	1250.0	-1784229.0	-128.68150158900042	117527.9541015625	3851156.0	-391.5770991536497	-5429399.0	0.2789664601047588	3868.0	128.0	128.0	128.0	128.0	
-330.0279241833597	-4575991.0	1253.90625	-4590064.0	-331.0428918651214	117531.8603515625	3851284.0	-511.3471080478559	-7090066.0	1.0149676817617037	14073.0	128.0	128.0	128.0	128.0	
-363.6272995027661	-5041862.0	1257.8125	-5062386.0	-365.1075238117604	117535.7666015625	3851412.0	-512.44559257574	-7105297.0	1.48022430899433	20524.0	128.0	128.0	128.0	128.0	
-186.94986366627975	-2592147.0	1261.71875	-2615176.0	-188.61075265535743	117539.6728515625	3851540.0	-368.1997386455225	-5105261.0	1.6608889890776861	23029.0	128.0	128.0	128.0	128.0	
17.38715438689642	241081.0	1265.625	229013.0	16.516790570830175	117543.5791015625	3851668.0	-244.21660056312092	-3386177.0	0.8703638160662432	12068.0	128.0	128.0	128.0	128.0	
-46.12005068302759	-639476.0	1269.53125	-643412.0	-46.40392141388911	117547.4853515625	3851796.0	-316.88541613643366	-4393764.0	0.28387073086151254	3936.0	128.0	128.0	128.0	128.0	
-302.3049470549759	-4191599.0	1273.4375	-4202749.0	-303.109103215826	117551.3916015625	3851924.0	-488.4316144504088	-6772332.0	0.8041561608500672	11150.0	128.0	128.0	128.0	128.0	
-410.2227038410549	-5687929.0	1277.34375	-5712577.0	-412.0003577471206	117555.2978515625	3852052.0	-526.0724694815242	-7294240.0	1.7776539060656913	24648.0	128.0	128.0	128.0	128.0	
-239.42729168263577	-3319771.0	1281.25	-3347471.0	-241.42506079972517	117559.2041015625	3852180.0	-384.00454449707803	-5324402.0	1.9977691170894047	27700.0	128.0	128.0	128.0	128.0	
-45.671959003443604	-633263.0	1285.15625	-650608.0	-46.92290865455969	117563.1103515625	3852308.0	-265.38163010855084	-3679640.0	1.2509496511160911	17345.0	128.0	128.0	128.0	128.0	
-112.4636551694459	-1559361.0	1289.0625	-1568415.0	-113.11664439638191	117567.0166015625	3852436.0	-339.6654653150398	-4709620.0	0.6529892269360098	9054.0	128.0	128.0	128.0	128.0	
-368.596191238903	-5110758.0	1292.96875	-5126407.0	-369.72482260761535	117570.9228515625	3852564.0	-511.6724487152635	-7094577.0	1.1286313687123501	15649.0	128.0	128.0	128.0	128.0	
-479.62556357688476	-6650232.0	1296.875	-6679245.0	-481.7180283925568	117574.8291015625	3852692.0	-550.8613223864224	-7637949.0	2.092464815672018	29013.0	128.0	128.0	128.0	128.0	
-303.61626250937735	-4209781.0	1300.78125	-4241265.0	-305.88693986975437	117578.7353515625	3852820.0	-405.6927443376475	-5625119.0	2.270677360376997	31484.0	128.0	128.0	128.0	128.0	
-105.16703786457037	-1458190.0	1304.6875	-1478546.0	-106.63514573993037	117582.6416015625	3852948.0	-284.3042539720838	-3942011.0	1.4681078753599972	20356.0	128.0	128.0	128.0	128.0	
-172.168680091939	-2387199.0	1308.59375	-2398882.0	-173.01127708092656	117586.5478515625	3853076.0	-359.02377593800736	-4978032.0	0.8425969889875637	11683.0	128.0	128.0	128.0	128.0	
-428.9846407156755	-5948072.0	1312.5	-5966354.0	-430.3031683329545	117590.4541015625	3853204.0	-530.4086381684111	-7354363.0	1.3185276172790072	18282.0	128.0	128.0	128.0	128.0	
-534.9432134560601	-7417237.0	1316.40625	-7448280.0	-537.182085178147	117594.3603515625	3853332.0	-566.080067882546	-7848964.0	2.2388717220868735	31043.0	128.0	128.0	128.0	128.0	
-355.1677930555097	-4924567.0	1320.3125	-4957301.0	-357.52862245185645	117598.2666015625	3853460.0	-418.94155966538904	-5808820.0	2.3608293963467357	32734.0	128.0	128.0	128.0	128.0	
-154.02958560342617	-2135692.0	1324.21875	-2156898.0	-155.5589968632456	117602.1728515625	3853588.0	-296.58642310934346	-4112309.0	1.5294112598194194	21206.0	128.0	128.0	128.0	128.0	
-218.25490573107075	-3026206.0	1328.125	-3038705.0	-219.15635396913936	117606.0791015625	3853716.0	-370.39944832318406	-5135761.0	0.9014482380686091	12499.0	128.0	128.0	128.0	128.0	
-471.70502206146983	-6540410.0	1332.03125	-6559368.0	-473.0723038998013	117609.9853515625	3853844.0	-540.2655011731983	-7491033.0	1.3672818383314418	18958.0	128.0	128.0	128.0	128.0	
-561.1201192283772	-7780192.0	1335.9375	-7805923.0	-562.9758808584071	117613.8916015625	3853972.0	-585.1024359586759	-8112718.0	1.8557616300298727	25731.0	128.0	128.0	128.0	128.0	
-508.17267455728944	-7046051.0	1339.84375	-7080115.0	-510.629425719908	117617.7978515625	3854100.0	-512.8380063579091	-7110738.0	2.4567511626185374	34064.0	128.0	128.0	128.0	128.0	
-276.10481811819295	-3828322.0	1343.75	-3855731.0	-278.0815998413086	117621.7041015625	3854228.0	-348.9224927332989	-4837973.0	1.9767817231156497	27409.0	128.0	128.0	128.0	128.0	
-217.7313027061585	-3018946.0	1347.65625	-3034674.0	-218.86563168354414	117625.6103515625	3854356.0	-331.9891276346597	-4603184.0	1.1343289773856375	15728.0	128.0	128.0	128.0	128.0	
-414.2576204845453	-5743875.0	1351.5625	-5759267.0	-415.3677165946623	117629.5166015625	3854484.0	-481.80118463053526	-6680398.0	1.1100961101169717	15392.0	128.0	128.0	128.0	128.0	
-605.0000721216288	-8388608.0	1355.46875	-8415203.0	-606.918146838921	117633.4228515625	3854612.0	-600.7855726224867	-8330172.0	1.918074717292156	26595.0	128.0	128.0	128.0	128.0	
-551.9792797540761	-7653450.0	1359.375	-7688090.0	-554.4775729748694	117637.3291015625	3854740.0	-518.6342774193618	-7191106.0	2.4982932207933928	34640.0	128.0	128.0	128.0	128.0	
-309.427030018214	-4290350.0	1363.28125	-4317508.0	-311.3857092125069	117641.2353515625	3854868.0	-349.70796939229604	-4848864.0	1.9586791942929263	27158.0	128.0	128.0	128.0	128.0	
-225.83885560498902	-3131361.0	1367.1875	-3145790.0	-226.8794985865949	117645.1416015625	3854996.0	-320.70519396128583	-4446727.0	1.0406429816058853	14429.0	128.0	128.0	128.0	128.0	
-413.76690492235485	-5737071.0	1371.09375	-5748638.0	-414.60113580240443	117649.0478515625	3855124.0	-466.81279561672164	-6472577.0	0.834230880049572	11567.0	128.0	128.0	128.0	128.0	
-605.0000721216288	-8388608.0	1375.0	-8410674.0	-606.5915079821954	117652.9541015625	3855252.0	-586.1048544770306	-8126617.0	1.5914358605665995	22066.0	128.0	128.0	128.0	128.0	
-577.6669123967782	-8009621.0	1378.90625	-8040190.0	-579.8715984668254	117656.8603515625	3855380.0	-516.6629048184043	-7163772.0	2.2046860700471487	30569.0	128.0	128.0	128.0	128.0	
-399.4220572021076	-5538173.0	1382.8125	-5564600.0	-401.32801548576543	117660.7666015625	3855508.0	-378.39405875135174	-5246610.0	1.9059582836578233	26427.0	128.0	128.0	128.0	128.0	
-446.30097166311407	-6188171.0	1386.71875	-6208224.0	-447.747226684955	117664.6728515625	3855636.0	-412.1425094774377	-5714548.0	1.4462550218409327	20053.0	128.0	128.0	128.0	128.0	
-605.0000721216288	-8388608.0	1390.625	-8413229.0	-606.7757787437175	117668.5791015625	3855764.0	-572.9636446194226	-7944408.0	1.775706622088745	24621.0	128.0	128.0	128.0	128.0	
-605.0000721216288	-8388608.0	1394.53125	-8423228.0	-607.4969229098467	117672.4853515625	3855892.0	-605.0000721216288	-8388608.0	2.496850788217877	34620.0	128.0	128.0	128.0	128.0	
-605.0000721216288	-8388608.0	1398.4375	-8428861.0	-607.9031840447407	117676.3916015625	3856020.0	-580.2517515721025	-8045461.0	2.9031119231119065	40253.0	128.0	128.0	128.0	128.0	
-605.0000721216288	-8388608.0	1402.34375	-8426460.0	-607.7300200140501	117680.2978515625	3856148.0	-487.4101558220573	-6758169.0	2.729947892421233	37852.0	128.0	128.0	128.0	128.0	
-605.0000721216288	-8388608.0	1406.25	-8420898.0	-607.3288795147992	117684.2041015625	3856276.0	-500.73657402236154	-6942946.0	2.3288073931702846	32290.0	128.0	128.0	128.0	128.0	
-605.0000721216288	-8388608.0	1410.15625	-8420324.0	-607.2874816998818	117688.1103515625	3856404.0	-592.5515905084122	-8216004.0	2.287409578252981	31716.0	128.0	128.0	128.0	128.0	
-605.0000721216288	-8388608.0	1414.0625	-8422659.0	-607.4558857030732	117692.0166015625	3856532.0	-599.5935463420805	-8313644.0	2.455813581444452	34051.0	128.0	128.0	128.0	128.0	
-605.0000721216288	-8388608.0	1417.96875	-8424012.0	-607.5534662668069	117695.9228515625	3856660.0	-591.2979723570314	-8198622.0	2.553394145178097	35404.0	128.0	128.0	128.0	128.0	
-605.0000721216288	-8388608.0	1421.875	-8423798.0	-607.5380322382489	117699.8291015625	3856788.0	-551.4062012918235	-7645504.0	2.537960116620078	35190.0	128.0	128.0	128.0	128.0	
-605.0000721216288	-8388608.0	1425.78125	-8421364.0	-607.3624881938086	117703.7353515625	3856916.0	-518.8910304178036	-7194666.0	2.362416072179803	32756.0	128.0	128.0	128.0	128.0	
-605.0000721216288	-8388608.0	1429.6875	-8418059.0	-607.1241262107046	117707.6416015625	3857044.0	-557.3283245954901	-7727617.0	2.1240540890758144	29451.0	128.0	128.0	128.0	128.0	
-605.0000721216288	-8388608.0	1433.59375	-8415649.0	-606.950313085355	117711.5478515625	3857172.0	-585.1080614457204	-8112796.0	1.9502409637261586	27041.0	128.0	128.0	128.0	128.0	
-605.0000721216288	-8388608.0	1437.5	-8414796.0	-606.8887933360093	117715.4541015625	3857300.0	-574.3118863477572	-7963102.0	1.888721214380409	26188.0	128.0	128.0	128.0	128.0	
-605.0000721216288	-8388608.0	1441.40625	-8414054.0	-606.8352790874576	117719.3603515625	3857428.0	-509.6798723554459	-7066949.0	1.8352069658287724	25446.0	128.0	128.0	128.0	128.0	
-605.0000721216288	-8388608.0	1445.3125	-8410865.0	-606.6052832132916	117723.2666015625	3857556.0	-451.6181387446092	-6261896.0	1.6052110916627755	22257.0	128.0	128.0	128.0	128.0	
-605.0000721216288	-8388608.0	1449.21875	-8405022.0	-606.1838765363547	117727.1728515625	3857684.0	-479.3875622019246	-6646932.0	1.18380441472583	16414.0	128.0	128.0	128.0	128.0	
-605.0000721216288	-8388608.0	1453.125	-8404054.0	-606.1140627996997	117731.0791015625	3857812.0	-548.859370214864	-7610191.0	1.1139906780708646	15446.0	128.0	128.0	128.0	128.0	
-605.0000721216288	-8388608.0	1457.03125	-8405047.0	-606.1856795770741	117734.9853515625	3857940.0	-520.1131314174094	-7211611.0	1.1856074554452247	16439.0	128.0	128.0	128.0	128.0	
-605.0000721216288	-8388608.0	1460.9375	-8401637.0	-605.9397448229486	117738.8916015625	3858068.0	-389.60882778272963	-5402108.0	0.9396727013197782	13029.0	128.0	128.0	128.0	128.0	
-405.9543294852173	-5628746.0	1464.84375	-5628582.0	-405.94250153809804	117742.7978515625	3858196.0	-251.5536059801109	-3487908.0	-0.011827947119229689	-164.0	128.0	128.0	128.0	128.0	
-441.883161292453	-6126916.0	1468.75	-6116666.0	-441.1439145975011	117746.7041015625	3858324.0	-314.7644632773952	-4364356.0	-0.7392466949518556	-10250.0	128.0	128.0	128.0	128.0	
-605.0000721216288	-8388608.0	1472.65625	-8383672.0	-604.6440797619915	117750.6103515625	3858452.0	-456.409178544185	-6328326.0	-0.35599235963730336	-4936.0	128.0	128.0	128.0	128.0	
-605.0000721216288	-8388608.0	1476.5625	-8392536.0	-605.2833658794601	117754.5166015625	3858580.0	-444.3054383165167	-6160502.0	0.2832937578313062	3928.0	128.0	128.0	128.0	128.0	
-391.44836204628496	-5427614.0	1480.46875	-5428686.0	-391.5256764323326	117758.4228515625	3858708.0	-267.0848544937199	-3703256.0	0.07731438604764773	1072.0	128.0	128.0	128.0	128.0	
-188.49939686052764	-2613632.0	1484.375	-2601728.0	-187.64086099158064	117762.3291015625	3858836.0	-151.95767545195525	-2106964.0	-0.8585358689470135	-11904.0	128.0	128.0	128.0	128.0	
-193.79759595365476	-2687094.0	1488.28125	-2669941.0	-192.56049365526363	117766.2353515625	3858964.0	-244.2515074314484	-3386661.0	-1.2371022983911395	-17153.0	128.0	128.0	128.0	128.0	
-402.11529518548195	-5575516.0	1492.1875	-5559704.0	-400.97490799127917	117770.1416015625	3859092.0	-334.99804198718573	-4644904.0	-1.1403871942028039	-15812.0	128.0	128.0	128.0	128.0	
-571.9024469736156	-7929694.0	1496.09375	-7927505.0	-571.7445727282254	117774.0478515625	3859220.0	-438.96144198911696	-6086405.0	-0.15787424539020603	-2189.0	128.0	128.0	128.0	128.0	
-443.9332907120336	-6155342.0	1500.0	-6161123.0	-444.35022584798645	117777.9541015625	3859348.0	-332.9199293756401	-4616090.0	0.41693513595284654	5781.0	128.0	128.0	128.0	128.0	
-164.11283840094072	-2275501.0	1503.90625	-2273138.0	-163.9424149921435	117781.8603515625	3859476.0	-153.0666897376406	-2122341.0	-0.17042340879719364	-2363.0	128.0	128.0	128.0	128.0	
-105.19127073183904	-1458526.0	1507.8125	-1444422.0	-104.17406727958529	117785.7666015625	3859604.0	-144.6939456098015	-2006249.0	-1.0172034522537532	-14104.0	128.0	128.0	128.0	128.0	
-328.38391165541555	-4553196.0	1511.71875	-4541817.0	-327.5632396415758	117789.6728515625	3859732.0	-314.4461184079789	-4359942.0	-0.8206720138397234	-11379.0	128.0	128.0	128.0	128.0	
-498.67202027702575	-6914320.0	1515.625	-6917152.0	-498.8762687297188	117793.5791015625	3859860.0	-418.24241259603656	-5799126.0	0.2042484526930395	2832.0	128.0	128.0	128.0	128.0	
-366.4262677939258	-5080671.0	1519.53125	-5090685.0	-367.14849378448656	117797.4853515625	3859988.0	-309.08531774107433	-4285612.0	0.722225990560769	10014.0	128.0	128.0	128.0	128.0	
-91.63723667111834	-1270593.0	1523.4375	-1271901.0	-91.73157176155708	117801.3916015625	3860116.0	-131.29497305094876	-1820466.0	0.09433509043873435	1308.0	128.0	128.0	128.0	128.0	
-29.63809485889612	-410946.0	1527.34375	-400132.0	-28.85817156531472	117805.2978515625	3860244.0	-121.57817024924401	-1685738.0	-0.7799232935814016	-10814.0	128.0	128.0	128.0	128.0	
-245.62506385148333	-3405706.0	1531.25	-3396619.0	-244.96969461079772	117809.2041015625	3860372.0	-287.5610503627122	-3987168.0	-0.6553692406856109	-9087.0	128.0	128.0	128.0	128.0	
-406.12799836730943	-5631154.0	1535.15625	-5635245.0	-406.4230479506312	117813.1103515625	3860500.0	-387.18171860953794	-5368455.0	0.2950495833217601	4091.0	128.0	128.0	128.0	128.0	
-260.72949656599724	-3615136.0	1539.0625	-3625122.0	-261.4497031509523	117817.0166015625	3860628.0	-272.7394065546282	-3781659.0	0.7202065849550469	9986.0	128.0	128.0	128.0	128.0	
11.448298865353927	158736.0	1542.96875	158547.0	11.434667877515302	117820.9228515625	3860756.0	-96.43022375467108	-1337050.0	0.013630987838624459	189.0	128.0	128.0	128.0	128.0	
54.027970913406726	749123.0	1546.875	760640.0	54.85859571201751	117824.8291015625	3860884.0	-96.80568895407784	-1342256.0	-0.8306247986107825	-11517.0	128.0	128.0	128.0	128.0	
-220.03126144781848	-3050836.0	1550.78125	-3043081.0	-219.47195821666222	117828.7353515625	3861012.0	-289.7898250567705	-4018071.0	-0.5593032311562576	-7755.0	128.0	128.0	128.0	128.0	
-487.21629288390795	-6755481.0	1554.6875	-6767623.0	-488.0919937005036	117832.6416015625	3861140.0	-440.64952083224307	-6109811.0	0.8757008165956518	12142.0	128.0	128.0	128.0	128.0	
-280.6441534333412	-3891262.0	1558.59375	-3910425.0	-282.0262202055717	117836.5478515625	3861268.0	-289.5185756109447	-4014310.0	1.382066772230479	19163.0	128.0	128.0	128.0	128.0	
59.91461037571554	830744.0	1562.5	823811.0	59.41459112341298	117840.4541015625	3861396.0	-78.11724401917984	-1083132.0	0.5000192523025575	6933.0	128.0	128.0	128.0	128.0	
155.9019352080745	2161653.0	1566.40625	2163844.0	156.05995369672226	117844.3603515625	3861524.0	-32.80935499779642	-454917.0	-0.1580184886477576	-2191.0	128.0	128.0	128.0	128.0	
129.30946461075123	1792936.0	1570.3125	1807283.0	130.3441936187975	117848.2666015625	3861652.0	-98.01783716891256	-1359063.0	-1.0347290080462705	-14347.0	128.0	128.0	128.0	128.0	
-6.7741682260237015	-93927.0	1574.21875	-81850.0	-5.903155315298476	117852.1728515625	3861780.0	-215.06554306334772	-2981984.0	-0.8710129107252254	-12077.0	128.0	128.0	128.0	128.0	
41.35591225098518	573419.0	1578.125	580018.0	41.83184287927662	117856.0791015625	3861908.0	-179.37954478020012	-2487181.0	-0.4759306282914434	-6599.0	128.0	128.0	128.0	128.0	
343.8382785127495	4767478.0	1582.03125	4780482.0	344.7761481733499	117859.9853515625	3862036.0	18.057741291253723	250379.0	-0.9378696606003835	-13004.0	128.0	128.0	128.0	128.0	
578.2317689933502	8017453.0	1585.9375	8046358.0	580.3164446731145	117863.8916015625	3862164.0	141.3531996432781	1959928.0	-2.0846756797642327	-28905.0	128.0	128.0	128.0	128.0	
497.16200973534706	6893383.0	1589.84375	6929529.0	499.7689181290768	117867.7978515625	3862292.0	43.85723458018715	608101.0	-2.606908393729734	-36146.0	128.0	128.0	128.0	128.0	
344.75660321195164	4780211.0	1593.75	4808870.0	346.823536971037	117871.7041015625	3862420.0	-85.8310849465233	-1190088.0	-2.066933759085388	-28659.0	128.0	128.0	128.0	128.0	
518.7671254595668	7192948.0	1597.65625	7216780.0	520.4859281165515	117875.6103515625	3862548.0	8.178809068061003	113403.0	-1.7188026569846462	-23832.0	128.0	128.0	128.0	128.0	
605.0	8388607.0	1601.5625	8422434.0	607.4396583365987	117879.5166015625	3862676.0	202.92473231848865	2813646.0	-2.439658336598675	-33827.0	128.0	128.0	128.0	128.0	
605.0	8388607.0	1605.46875	8428975.0	607.9114059104211	117883.4228515625	3862804.0	225.27219596769763	3123504.0	-2.9114059104211227	-40368.0	128.0	128.0	128.0	128.0	
605.0	8388607.0	1609.375	8429758.0	607.9678771457526	117887.3291015625	3862932.0	171.59942407601167	2379306.0	-2.9678771457525666	-41151.0	128.0	128.0	128.0	128.0	
605.0	8388607.0	1613.28125	8426804.0	607.7548298543488	117891.2353515625	3863060.0	113.22727897492398	1569949.0	-2.754829854348881	-38197.0	128.0	128.0	128.0	128.0	
605.0	8388607.0	1617.1875	8420967.0	607.3338559071846	117895.1416015625	3863188.0	108.45477443394357	1503776.0	-2.33385590718459	-32360.0	128.0	128.0	128.0	128.0	
605.0	8388607.0	1621.09375	8414501.0	606.8675174555203	117899.0478515625	3863316.0	147.0045062308915	2038286.0	-1.8675174555203267	-25894.0	128.0	128.0	128.0	128.0	
605.0	8388607.0	1625.0	8410181.0	606.5559520192089	117902.9541015625	3863444.0	155.89688669406019	2161583.0	-1.5559520192089105	-21574.0	128.0	128.0	128.0	128.0	
605.0	8388607.0	1628.90625	8407020.0	606.3279755506486	117906.8603515625	3863572.0	95.9058273918423	1329779.0	-1.3279755506486357	-18413.0	128.0	128.0	128.0	128.0	
605.0	8388607.0	1632.8125	8403057.0	606.0421575358101	117910.7666015625	3863700.0	18.45541995232343	255893.0	-1.042157535810177	-14450.0	128.0	128.0	128.0	128.0	
605.0	8388607.0	1636.71875	8393959.0	605.385994957208	117914.6728515625	3863828.0	-19.85587773989174	-275311.0	-0.3859949572080323	-5352.0	128.0	128.0	128.0	128.0	
605.0	8388607.0	1640.625	8388318.0	604.9791568492838	117918.5791015625	3863956.0	48.718881454334436	675510.0	0.02084315071620354	289.0	128.0	128.0	128.0	128.0	
605.0	8388607.0	1644.53125	8387755.0	604.938552372283	117922.4853515625	3864084.0	71.7760219306972	995208.0	0.06144762771697375	852.0	128.0	128.0	128.0	128.0	
605.0	8388607.0	1648.4375	8385661.0	604.7875296816266	117926.3916015625	3864212.0	9.970454570109197	138245.0	0.21247031837347966	2946.0	128.0	128.0	128.0	128.0	
313.40302329099455	4345479.0	1652.34375	4329090.0	312.2210219169881	117930.2978515625	3864340.0	-234.5065771945211	-3251543.0	1.1820013740064352	16389.0	128.0	128.0	128.0	128.0	
0.9771759482831894	13549.0	1656.25	-27591.0	-1.9899078595528434	117934.2041015625	3864468.0	-403.17151643890344	-5590161.0	2.967083807836033	41140.0	128.0	128.0	128.0	128.0	
38.82134185091756	538276.0	1660.15625	482319.0	34.78563186951064	117938.1103515625	3864596.0	-334.54439694218604	-4638614.0	4.035709981406925	55957.0	128.0	128.0	128.0	128.0	
203.22793164586207	2817850.0	1664.0625	2765412.0	199.44601767611715	117942.0166015625	3864724.0	-207.27698412859252	-2873992.0	3.7819139697449176	52438.0	128.0	128.0	128.0	128.0	
119.80462727601854	1661147.0	1667.96875	1615062.0	116.48090201388622	117945.9228515625	3864852.0	-266.57755095691095	-3696222.0	3.3237252621323186	46085.0	128.0	128.0	128.0	128.0	
-242.87521038952	-3367578.0	1671.875	-3421467.0	-246.76177284261857	117949.8291015625	3864980.0	-497.9257056624539	-6903972.0	3.88656245309859	53889.0	128.0	128.0	128.0	128.0	
-515.980417845299	-7154309.0	1675.78125	-7225713.0	-521.1301906264056	117953.7353515625	3865108.0	-605.0000721216288	-8388608.0	5.149772781106566	71404.0	128.0	128.0	128.0	128.0	
-434.1514342011731	-6019712.0	1679.6875	-6098875.0	-439.86079869995103	117957.6416015625	3865236.0	-545.0874090298902	-7557891.0	5.709364498777926	79163.0	128.0	128.0	128.0	128.0	
-226.0781551692671	-3134679.0	1683.59375	-3203922.0	-231.07207311058917	117961.5478515625	3865364.0	-393.0752096265805	-5450171.0	4.993917941322081	69243.0	128.0	128.0	128.0	128.0	
-262.3947849744302	-3638226.0	1687.5	-3694829.0	-266.4770855280263	117965.4541015625	3865492.0	-426.71482881484377	-5916600.0	4.082300553596086	56603.0	128.0	128.0	128.0	128.0	
-553.9349298399603	-7680566.0	1691.40625	-7738256.0	-558.0956266040357	117969.3603515625	3865620.0	-605.0000721216288	-8388608.0	4.160696764075371	57690.0	128.0	128.0	128.0	128.0	
-605.0000721216288	-8388608.0	1695.3125	-8454939.0	-609.7839718799557	117973.2666015625	3865748.0	-605.0000721216288	-8388608.0	4.783899758326979	66331.0	128.0	128.0	128.0	128.0	
-558.3409122635022	-7741657.0	1699.21875	-7807905.0	-563.1188259266409	117977.1728515625	3865876.0	-568.1295482074676	-7877381.0	4.777913663138588	66248.0	128.0	128.0	128.0	128.0	
-285.5199361467285	-3958867.0	1703.125	-4009295.0	-289.1568856426341	117981.0791015625	3866004.0	-384.85644517617766	-5336214.0	3.636949495905578	50428.0	128.0	128.0	128.0	128.0	
-255.81217179443502	-3546955.0	1707.03125	-3580125.0	-258.204446220928	117984.9853515625	3866132.0	-388.0426344922345	-5380392.0	2.3922744264929805	33170.0	128.0	128.0	128.0	128.0	
-498.2046000009299	-6907839.0	1710.9375	-6938583.0	-500.4219073560128	117988.8916015625	3866260.0	-560.6983519432964	-7774344.0	2.217307355082912	30744.0	128.0	128.0	128.0	128.0	
-605.0000721216288	-8388608.0	1714.84375	-8427928.0	-607.8358945650929	117992.7978515625	3866388.0	-605.0000721216288	-8388608.0	2.8358224434640937	39320.0	128.0	128.0	128.0	128.0	
-455.1960927481762	-6311506.0	1718.75	-6350990.0	-458.04374313875957	117996.7041015625	3866516.0	-493.23960283274687	-6838997.0	2.8476503905833237	39484.0	128.0	128.0	128.0	128.0	
-298.97328841367823	-4145404.0	1722.65625	-4178624.0	-301.36916892161	118000.6103515625	3866644.0	-387.86031101468933	-5377864.0	2.39588050793177	33220.0	128.0	128.0	128.0	128.0	
-108.1427762678595	-1499450.0	1726.5625	-1514707.0	-109.24313595809174	118004.5166015625	3866772.0	-279.17871405824593	-3870943.0	1.1003596902322401	15257.0	128.0	128.0	128.0	128.0	
-240.80661783297276	-3338896.0	1730.46875	-3344989.0	-241.24605491710366	118008.4228515625	3866900.0	-392.63166160960935	-5444021.0	0.4394370841308933	6093.0	128.0	128.0	128.0	128.0	
-455.3236037878518	-6313274.0	1734.375	-6326276.0	-456.26132920519467	118012.3291015625	3867028.0	-540.2008080721865	-7490136.0	0.9377254173428319	13002.0	128.0	128.0	128.0	128.0	
-400.12856067759526	-5547969.0	1738.28125	-5568572.0	-401.61448259526287	118016.2353515625	3867156.0	-490.2917033781652	-6798123.0	1.4859219176676177	20603.0	128.0	128.0	128.0	128.0	
-80.24750056833037	-1112669.0	1742.1875	-1125107.0	-81.14454938704365	118020.1416015625	3867284.0	-276.71157738108366	-3836735.0	0.8970488187132858	12438.0	128.0	128.0	128.0	128.0	
138.85764704437818	1925326.0	1746.09375	1930973.0	139.26491788207508	118024.0478515625	3867412.0	-157.75156649965842	-2187299.0	-0.4072708376968906	-5647.0	128.0	128.0	128.0	128.0	
37.79303166783234	524018.0	1750.0	538904.0	38.86663423378876	118027.9541015625	3867540.0	-260.1096111666693	-3606541.0	-1.0736025659564217	-14886.0	128.0	128.0	128.0	128.0	
-159.3811547018474	-2209894.0	1753.90625	-2201964.0	-158.8092301856554	118031.8603515625	3867668.0	-402.80225369957134	-5585041.0	-0.571924516192021	-7930.0	128.0	128.0	128.0	128.0	
-126.7856403333712	-1757942.0	1757.8125	-1758899.0	-126.85466073210964	118035.7666015625	3867796.0	-367.4807581282566	-5095292.0	0.06902039873843178	957.0	128.0	128.0	128.0	128.0	
141.2092448722416	1957932.0	1761.71875	1960846.0	141.41940729849426	118039.6728515625	3867924.0	-182.88126622215108	-2535734.0	-0.21016242625265436	-2914.0	128.0	128.0	128.0	128.0	
303.63559110588926	4210049.0	1765.625	4224997.0	304.71366521282977	118043.5791015625	3868052.0	-93.52812153436203	-1296811.0	-1.0780741069405206	-14948.0	128.0	128.0	128.0	128.0	
151.64308090723526	2102602.0	1769.53125	2120939.0	152.96557521409693	118047.4853515625	3868180.0	-221.22566774197435	-3067397.0	-1.3224943068616757	-18337.0	128.0	128.0	128.0	128.0	
-109.24025109294071	-1514667.0	1773.4375	-1509168.0	-108.84365425630264	118051.3916015625	3868308.0	-395.1589477251706	-5479063.0	-0.39659683663807355	-5499.0	128.0	128.0	128.0	128.0	
-131.44044237618954	-1822483.0	1777.34375	-1831267.0	-132.07395876335607	118055.2978515625	3868436.0	-385.3214133168952	-5342661.0	0.6335163871665462	8784.0	128.0	128.0	128.0	128.0	
99.20048763757798	1375461.0	1781.25	1367028.0	98.59228594211173	118059.2041015625	3868564.0	-217.22291734491796	-3011897.0	0.6082016954662437	8433.0	128.0	128.0	128.0	128.0	
237.32617227151064	3290638.0	1785.15625	3292210.0	237.43954747194618	118063.1103515625	3868692.0	-139.38449554258534	-1932631.0	-0.11337520043554312	-1572.0	128.0	128.0	128.0	128.0	
76.18741347639723	1056374.0	1789.0625	1060080.0	76.4546962326403	118067.0166015625	3868820.0	-270.7506526411358	-3754084.0	-0.2672827562430807	-3706.0	128.0	128.0	128.0	128.0	
-173.652871090516	-2407778.0	1792.96875	-2416444.0	-174.27787712548698	118070.9228515625	3868948.0	-438.1879375204966	-6075680.0	0.6250060349710029	8666.0	128.0	128.0	128.0	128.0	
-205.0454688126408	-2843051.0	1796.875	-2864962.0	-206.62572582074714	118074.8291015625	3869076.0	-431.2289936815493	-5979191.0	1.580257008106352	21911.0	128.0	128.0	128.0	128.0	
-114.67692371331736	-1590049.0	1800.78125	-1613574.0	-116.37358503026785	118078.7353515625	3869204.0	-357.7674171647331	-4960612.0	1.6966613169504783	23525.0	128.0	128.0	128.0	128.0	
122.40547745293111	1697209.0	1804.6875	1681700.0	121.28694311224737	118082.6416015625	3869332.0	-199.70039066080938	-2768939.0	1.1185343406837394	15509.0	128.0	128.0	128.0	128.0	
135.90037177805564	1884322.0	1808.59375	1879211.0	135.53175813338257	118086.5478515625	3869460.0	-216.98037230734496	-3008534.0	0.36861364467306673	5111.0	128.0	128.0	128.0	128.0	
-101.16147472399173	-1402651.0	1812.5	-1410609.0	-101.73541864578948	118090.4541015625	3869588.0	-390.7859970076081	-5418430.0	0.5739439217977431	7958.0	128.0	128.0	128.0	128.0	
-288.64763482184827	-4002234.0	1816.40625	-4023412.0	-290.175026676062	118094.3603515625	3869716.0	-494.7529309693493	-6859980.0	1.5273918542136973	21178.0	128.0	128.0	128.0	128.0	
-260.9934617273166	-3618796.0	1820.3125	-3649515.0	-263.2089660416801	118098.2666015625	3869844.0	-430.52912539590903	-5969487.0	2.215504314363517	30719.0	128.0	128.0	128.0	128.0	
-173.36056212908773	-2403725.0	1824.21875	-2433283.0	-175.49233323244255	118102.1728515625	3869972.0	-341.5337039868479	-4735524.0	2.1317711033548243	29558.0	128.0	128.0	128.0	128.0	
-269.89702104294554	-3742248.0	1828.125	-3770146.0	-271.90907024253255	118106.0791015625	3870100.0	-405.73313244976197	-5625679.0	2.0120491995870116	27898.0	128.0	128.0	128.0	128.0	
-605.0000721216288	-8388608.0	1832.03125	-8427029.0	-607.7710572208234	118109.9853515625	3870228.0	-605.0000721216288	-8388608.0	2.770985099194658	38421.0	128.0	128.0	128.0	128.0	
-605.0000721216288	-8388608.0	1835.9375	-8443895.0	-608.987460611756	118113.8916015625	3870356.0	-605.0000721216288	-8388608.0	3.9873884901271452	55287.0	128.0	128.0	128.0	128.0	
-605.0000721216288	-8388608.0	1839.84375	-8451482.0	-609.5346474092779	118117.7978515625	3870484.0	-605.0000721216288	-8388608.0	4.53457528764907	62874.0	128.0	128.0	128.0	128.0	
-605.0000721216288	-8388608.0	1843.75	-8448943.0	-609.3515305938162	118121.7041015625	3870612.0	-549.8082023630384	-7623347.0	4.351458472187337	60335.0	128.0	128.0	128.0	128.0	
-605.0000721216288	-8388608.0	1847.65625	-8445352.0	-609.0925418248823	118125.6103515625	3870740.0	-589.4084578047344	-8172423.0	4.092469703253473	56744.0	128.0	128.0	128.0	128.0	
-605.0000721216288	-8388608.0	1851.5625	-8443561.0	-608.9633719877448	118129.5166015625	3870868.0	-605.0000721216288	-8388608.0	3.963299866116031	54953.0	128.0	128.0	128.0	128.0	
-605.0000721216288	-8388608.0	1855.46875	-8440467.0	-608.7402276683125	118133.4228515625	3870996.0	-605.0000721216288	-8388608.0	3.7401555466837344	51859.0	128.0	128.0	128.0	128.0	
-605.0000721216288	-8388608.0	1859.375	-8438008.0	-608.5628805831528	118137.3291015625	3871124.0	-599.6733128635065	-8314750.0	3.562808461524065	49400.0	128.0	128.0	128.0	128.0	
-605.0000721216288	-8388608.0	1863.28125	-8436278.0	-608.4381101653707	118141.2353515625	3871252.0	-603.0497590362739	-8361566.0	3.438038043741947	47670.0	128.0	128.0	128.0	128.0	
-605.0000721216288	-8388608.0	1867.1875	-8434744.0	-608.3274755868287	118145.1416015625	3871380.0	-605.0000721216288	-8388608.0	3.327403465199884	46136.0	128.0	128.0	128.0	128.0	
-605.0000721216288	-8388608.0	1871.09375	-8433942.0	-608.2696340405505	118149.0478515625	3871508.0	-605.0000721216288	-8388608.0	3.2695619189216996	45334.0	128.0	128.0	128.0	128.0	
-605.0000721216288	-8388608.0	1875.0	-8430747.0	-608.0392054366118	118152.9541015625	3871636.0	-605.0000721216288	-8388608.0	3.039133314983048	42139.0	128.0	128.0	128.0	128.0	
-605.0000721216288	-8388608.0	1878.90625	-8429361.0	-607.9392448591286	118156.8603515625	3871764.0	-605.0000721216288	-8388608.0	2.9391727374998022	40753.0	128.0	128.0	128.0	128.0	
-605.0000721216288	-8388608.0	1882.8125	-8425594.0	-607.6675626835303	118160.7666015625	3871892.0	-605.0000721216288	-8388608.0	2.667490561901398	36986.0	128.0	128.0	128.0	128.0	
-605.0000721216288	-8388608.0	1886.71875	-8421154.0	-607.3473426517658	118164.6728515625	3872020.0	-605.0000721216288	-8388608.0	2.347270530136887	32546.0	128.0	128.0	128.0	128.0	
-605.0000721216288	-8388608.0	1890.625	-8418317.0	-607.1427335909287	118168.5791015625	3872148.0	-605.0000721216288	-8388608.0	2.1426614692999686	29709.0	128.0	128.0	128.0	128.0	
-605.0000721216288	-8388608.0	1894.53125	-8417722.0	-607.0998212218072	118172.4853515625	3872276.0	-605.0000721216288	-8388608.0	2.0997491001783732	29114.0	128.0	128.0	128.0	128.0	
-605.0000721216288	-8388608.0	1898.4375	-8416415.0	-607.0055582529973	118176.3916015625	3872404.0	-605.0000721216288	-8388608.0	2.0054861313684142	27807.0	128.0	128.0	128.0	128.0	
-605.0000721216288	-8388608.0	1902.34375	-8415001.0	-606.9035782699083	118180.2978515625	3872532.0	-605.0000721216288	-8388608.0	1.9035061482794462	26393.0	128.0	128.0	128.0	128.0	
-605.0000721216288	-8388608.0	1906.25	-8412491.0	-606.722552981681	118184.2041015625	3872660.0	-605.0000721216288	-8388608.0	1.7224808600522115	23883.0	128.0	128.0	128.0	128.0	
-605.0000721216288	-8388608.0	1910.15625	-8410004.0	-606.5431864909157	118188.1103515625	3872788.0	-605.0000721216288	-8388608.0	1.5431143692868197	21396.0	128.0	128.0	128.0	128.0	
-605.0000721216288	-8388608.0	1914.0625	-8408659.0	-606.4461829002122	118192.0166015625	3872916.0	-605.0000721216288	-8388608.0	1.446110778583381	20051.0	128.0	128.0	128.0	128.0	
-605.0000721216288	-8388608.0	1917.96875	-8408677.0	-606.4474810895301	118195.9228515625	3873044.0	-605.0000721216288	-8388608.0	1.4474089679013453	20069.0	128.0	128.0	128.0	128.0	
-605.0000721216288	-8388608.0	1921.875	-8409621.0	-606.5155639070945	118199.8291015625	3873172.0	-605.0000721216288	-8388608.0	1.5154917854656917	21013.0	128.0	128.0	128.0	128.0	
-605.0000721216288	-8388608.0	1925.78125	-8406547.0	-606.2938620202377	118203.7353515625	3873300.0	-605.0000721216288	-8388608.0	1.293789898608911	17939.0	128.0	128.0	128.0	128.0	
-417.3539462511476	-5786807.0	1929.6875	-5792170.0	-417.74073454627217	118207.6416015625	3873428.0	-605.0000721216288	-8388608.0	0.38678829512456603	5363.0	128.0	128.0	128.0	128.0	
139.5502310455121	1934929.0	1933.59375	1956475.0	141.1041636591153	118211.5478515625	3873556.0	-543.2059721000162	-7531804.0	-1.5539326136031884	-21546.0	128.0	128.0	128.0	128.0	
605.0	8388607.0	1937.5	8450949.0	609.4962065811403	118215.4541015625	3873684.0	-257.5347968977448	-3570840.0	-4.496206581140349	-62342.0	128.0	128.0	128.0	128.0	
605.0	8388607.0	1941.40625	8475324.0	611.2541712825503	118219.3603515625	3873812.0	-172.80637953357453	-2396041.0	-6.25417128255025	-86717.0	128.0	128.0	128.0	128.0	
605.0	8388607.0	1945.3125	8482443.0	611.7676051578051	118223.2666015625	3873940.0	-120.21716299261607	-1666867.0	-6.767605157805105	-93836.0	128.0	128.0	128.0	128.0	
605.0	8388607.0	1949.21875	8480767.0	611.6467293079769	118227.1728515625	3874068.0	-117.87241671948632	-1634356.0	-6.646729307976879	-92160.0	128.0	128.0	128.0	128.0	
605.0	8388607.0	1953.125	8472085.0	611.0205693269455	118231.0791015625	3874196.0	-164.1140644686299	-2275518.0	-6.020569326945464	-83478.0	128.0	128.0	128.0	128.0	
605.0	8388607.0	1957.03125	8467293.0	610.6749624818518	118234.9853515625	3874324.0	-166.4270772250983	-2307589.0	-5.674962481851874	-78686.0	128.0	128.0	128.0	128.0	
605.0	8388607.0	1960.9375	8459285.0	610.0974124786153	118238.8916015625	3874452.0	-94.77640268521341	-1314119.0	-5.097412478615341	-70678.0	128.0	128.0	128.0	128.0	
605.0	8388607.0	1964.84375	8452056.0	609.5760452241951	118242.7978515625	3874580.0	-4.0202038312201305	-55742.0	-4.57604522419515	-63449.0	128.0	128.0	128.0	128.0	
605.0	8388607.0	1968.75	8442862.0	608.9129589692305	118246.7041015625	3874708.0	-22.15302373802945	-307162.0	-3.9129589692305293	-54255.0	128.0	128.0	128.0	128.0	
605.0	8388607.0	1972.65625	8434668.0	608.3219943430418	118250.6103515625	3874836.0	-82.3211416388919	-1141421.0	-3.3219943430416996	-46061.0	128.0	128.0	128.0	128.0	
605.0	8388607.0	1976.5625	8426179.0	607.709753836364	118254.5166015625	3874964.0	-99.9380034134392	-1385687.0	-2.7097538363640115	-37572.0	128.0	128.0	128.0	128.0	
605.0	8388607.0	1980.46875	8417569.0	607.0887866126045	118258.4228515625	3875092.0	-57.23038759593816	-793526.0	-2.0887866126044528	-28962.0	128.0	128.0	128.0	128.0	
605.0	8388607.0	1984.375	8410688.0	606.5925176849983	118262.3291015625	3875220.0	-20.694003187895202	-286932.0	-1.5925176849982363	-22081.0	128.0	128.0	128.0	128.0	
605.0	8388607.0	1988.28125	8406694.0	606.3044638996678	118266.2353515625	3875348.0	-47.85774920675149	-663570.0	-1.304463899667728	-18087.0	128.0	128.0	128.0	128.0	
605.0	8388607.0	1992.1875	8403778.0	606.0941572301575	118270.1416015625	3875476.0	-107.79918882837163	-1494686.0	-1.094157230157522	-15171.0	128.0	128.0	128.0	128.0	
605.0	8388607.0	1996.09375	8399755.0	605.8040119175926	118274.0478515625	3875604.0	-125.2565175600669	-1736740.0	-0.8040119175925157	-11148.0	128.0	128.0	128.0	128.0	
605.0	8388607.0	2000.0	8395626.0	605.5062217123773	118277.9541015625	3875732.0	-82.9050383454607	-1149517.0	-0.5062217123772755	-7019.0	128.0	128.0	128.0	128.0	
605.0	8388607.0	2003.90625	8392614.0	605.2889913665045	118281.8603515625	3875860.0	-46.32242397337246	-642282.0	-0.28899136650459367	-4007.0	128.0	128.0	128.0	128.0	
605.0	8388607.0	2007.8125	8391549.0	605.2121818318584	118285.7666015625	3875988.0	-71.97046184187673	-997904.0	-0.2121818318583765	-2942.0	128.0	128.0	128.0	128.0	
605.0	8388607.0	2011.71875	8390853.0	605.1619851782305	118289.6728515625	3876116.0	-130.05022585990739	-1803207.0	-0.1619851782304261	-2246.0	128.0	128.0	128.0	128.0	
605.0	8388607.0	2015.625	8388839.0	605.016732217876	118293.5791015625	3876244.0	-147.12430025628808	-2039947.0	-0.016732217875983463	-232.0	128.0	128.0	128.0	128.0	
605.0	8388607.0	2019.53125	8386282.0	604.8323172130963	118297.4853515625	3876372.0	-105.55397040295249	-1463555.0	0.16768278690371358	2325.0	128.0	128.0	128.0	128.0	
605.0	8388607.0	2023.4375	8384915.0	604.7337269465597	118301.3916015625	3876500.0	-71.59954030508284	-992761.0	0.2662730534402196	3692.0	128.0	128.0	128.0	128.0	
605.0	8388607.0	2027.34375	8384741.0	604.7211777831528	118305.2978515625	3876628.0	-107.82096956026191	-1494988.0	0.2788222168472072	3866.0	128.0	128.0	128.0	128.0	
605.0	8388607.0	2031.25	8381353.0	604.4768297048604	118309.2041015625	3876756.0	-207.73531707946267	-2880347.0	0.5231702951395863	7254.0	128.0	128.0	128.0	128.0	
605.0	8388607.0	2035.15625	8378028.0	604.2370252891809	118313.1103515625	3876884.0	-245.29626134589452	-3401147.0	0.7629747108190907	10579.0	128.0	128.0	128.0	128.0	
603.9201228523401	8373634.0	2039.0625	8355239.0	602.5934454910094	118317.0166015625	3877012.0	-262.64764340491814	-3641732.0	1.3266773613306715	18395.0	128.0	128.0	128.0	128.0	
605.0	8388607.0	2042.96875	8367681.0	603.4907827962378	118320.9228515625	3877140.0	-184.2912440647178	-2555284.0	1.509217203762198	20926.0	128.0	128.0	128.0	128.0	
605.0	8388607.0	2046.875	8370424.0	603.6886124239697	118324.8291015625	3877268.0	-154.4305818594196	-2141252.0	1.3113875760302038	18183.0	128.0	128.0	128.0	128.0	
605.0	8388607.0	2050.78125	8374294.0	603.9677231273321	118328.7353515625	3877396.0	-206.51963490481793	-2863491.0	1.0322768726678935	14313.0	128.0	128.0	128.0	128.0	
605.0	8388607.0	2054.6875	8374689.0	603.9962111706985	118332.6416015625	3877524.0	-265.2234673766455	-3677447.0	1.0037888293014563	13918.0	128.0	128.0	128.0	128.0	
605.0	8388607.0	2058.59375	8373321.0	603.8975487825332	118336.5478515625	3877652.0	-253.6537878100619	-3517028.0	1.102451217466738	15286.0	128.0	128.0	128.0	128.0	
605.0	8388607.0	2062.5	8373010.0	603.875118955984	118340.4541015625	3877780.0	-198.19665470083413	-2748089.0	1.1248810440160089	15597.0	128.0	128.0	128.0	128.0	
605.0	8388607.0	2066.40625	8374565.0	603.9872680887304	118344.3603515625	3877908.0	-199.25265958936927	-2762731.0	1.0127319112696542	14042.0	128.0	128.0	128.0	128.0	
489.3684022865775	6785321.0	2070.3125	6767586.0	488.0893252002389	118348.2666015625	3878036.0	-341.5117068900713	-4735219.0	1.2790770863386496	17735.0	128.0	128.0	128.0	128.0	
96.16178705236759	1333328.0	2074.21875	1297758.0	93.5964207168127	118352.1728515625	3878164.0	-558.2548711603727	-7740464.0	2.565366335554878	35570.0	128.0	128.0	128.0	128.0	
-223.07919360151217	-3093097.0	2078.125	-3154473.0	-227.5057306892551	118356.0791015625	3878292.0	-605.0000721216288	-8388608.0	4.426537087742935	61376.0	128.0	128.0	128.0	128.0	
-343.1709370816871	-4758225.0	2082.03125	-4838066.0	-348.92920004477503	118359.9853515625	3878420.0	-605.0000721216288	-8388608.0	5.758262963087913	79841.0	128.0	128.0	128.0	128.0	
-396.37224988606573	-5495886.0	2085.9375	-5582734.0	-402.63586910198563	118363.8916015625	3878548.0	-605.0000721216288	-8388608.0	6.263619215919879	86848.0	128.0	128.0	128.0	128.0	
-522.9951838249187	-7251572.0	2089.84375	-7340472.0	-529.4067966230865	118367.7978515625	3878676.0	-605.0000721216288	-8388608.0	6.411612798167801	88900.0	128.0	128.0	128.0	128.0	
-605.0000721216288	-8388608.0	2093.75	-8481870.0	-611.7262794645167	118371.7041015625	3878804.0	-605.0000721216288	-8388608.0	6.7262073428878	93262.0	128.0	128.0	128.0	128.0	
-605.0000721216288	-8388608.0	2097.65625	-8483698.0	-611.8581178019188	118375.6103515625	3878932.0	-605.0000721216288	-8388608.0	6.858045680289946	95090.0	128.0	128.0	128.0	128.0	
-605.0000721216288	-8388608.0	2101.5625	-8478839.0	-611.5076788076972	118379.5166015625	3879060.0	-605.0000721216288	-8388608.0	6.507606686068379	90231.0	128.0	128.0	128.0	128.0	
-605.0000721216288	-8388608.0	2105.46875	-8467829.0	-610.7136196748758	118383.4228515625	3879188.0	-605.0000721216288	-8388608.0	5.713547553246922	79221.0	128.0	128.0	128.0	128.0	
-597.2337987701653	-8280925.0	2109.375	-8347611.0	-602.0433017067077	118387.3291015625	3879316.0	-605.0000721216288	-8388608.0	4.809502936542384	66686.0	128.0	128.0	128.0	128.0	
-605.0000721216288	-8388608.0	2113.28125	-8451343.0	-609.5246225028781	118391.2353515625	3879444.0	-605.0000721216288	-8388608.0	4.524550381249235	62735.0	128.0	128.0	128.0	128.0	
-605.0000721216288	-8388608.0	2117.1875	-8446777.0	-609.1953151458878	118395.1416015625	3879572.0	-605.0000721216288	-8388608.0	4.195243024258974	58169.0	128.0	128.0	128.0	128.0	
-605.0000721216288	-8388608.0	2121.09375	-8442973.0	-608.9209644700247	118399.0478515625	3879700.0	-605.0000721216288	-8388608.0	3.920892348395866	54365.0	128.0	128.0	128.0	128.0	
-578.5187409542491	-8021432.0	2125.0	-8068206.0	-581.8921580186079	118402.9541015625	3879828.0	-605.0000721216288	-8388608.0	3.373417064358838	46774.0	128.0	128.0	128.0	128.0	
-594.6223467138227	-8244716.0	2128.90625	-8283455.0	-597.416266490968	118406.8603515625	3879956.0	-605.0000721216288	-8388608.0	2.7939197771453594	38739.0	128.0	128.0	128.0	128.0	
-605.0000721216288	-8388608.0	2132.8125	-8426267.0	-607.7161005396963	118410.7666015625	3880084.0	-605.0000721216288	-8388608.0	2.716028418067505	37659.0	128.0	128.0	128.0	128.0	
-605.0000721216288	-8388608.0	2136.71875	-8429845.0	-607.974151727456	118414.6728515625	3880212.0	-605.0000721216288	-8388608.0	2.974079605827285	41237.0	128.0	128.0	128.0	128.0	
-605.0000721216288	-8388608.0	2140.625	-8433664.0	-608.2495842277508	118418.5791015625	3880340.0	-605.0000721216288	-8388608.0	3.2495121061220296	45056.0	128.0	128.0	128.0	128.0	
-605.0000721216288	-8388608.0	2144.53125	-8434053.0	-608.2776395413447	118422.4853515625	3880468.0	-605.0000721216288	-8388608.0	3.2775674197158122	45445.0	128.0	128.0	128.0	128.0	
-605.0000721216288	-8388608.0	2148.4375	-8431709.0	-608.1085864434942	118426.3916015625	3880596.0	-605.0000721216288	-8388608.0	3.108514321865359	43101.0	128.0	128.0	128.0	128.0	
-605.0000721216288	-8388608.0	2152.34375	-8428532.0	-607.8794560288735	118430.2978515625	3880724.0	-605.0000721216288	-8388608.0	2.8793839072446716	39924.0	128.0	128.0	128.0	128.0	
-605.0000721216288	-8388608.0	2156.25	-8425921.0	-607.6911464561399	118434.2041015625	3880852.0	-605.0000721216288	-8388608.0	2.691074334511082	37313.0	128.0	128.0	128.0	128.0	
-605.0000721216288	-8388608.0	2160.15625	-8425096.0	-607.6316461123998	118438.1103515625	3880980.0	-605.0000721216288	-8388608.0	2.6315739907710545	36488.0	128.0	128.0	128.0	128.0	
-605.0000721216288	-8388608.0	2164.0625	-8423079.0	-607.4861767871591	118442.0166015625	3881108.0	-605.0000721216288	-8388608.0	2.4861046655302843	34471.0	128.0	128.0	128.0	128.0	
-605.0000721216288	-8388608.0	2167.96875	-8419558.0	-607.2322365322395	118445.9228515625	3881236.0	-605.0000721216288	-8388608.0	2.232164410610725	30950.0	128.0	128.0	128.0	128.0	
-605.0000721216288	-8388608.0	2171.875	-8416960.0	-607.04486454068	118449.8291015625	3881364.0	-605.0000721216288	-8388608.0	2.0447924190512206	28352.0	128.0	128.0	128.0	128.0	
-605.0000721216288	-8388608.0	2175.78125	-8416037.0	-606.9782962773199	118453.7353515625	3881492.0	-605.0000721216288	-8388608.0	1.9782241556911655	27429.0	128.0	128.0	128.0	128.0	
-605.0000721216288	-8388608.0	2179.6875	-8416327.0	-606.999211549665	118457.6416015625	3881620.0	-605.0000721216288	-8388608.0	1.999139428036145	27719.0	128.0	128.0	128.0	128.0	
-605.0000721216288	-8388608.0	2183.59375	-8415496.0	-606.9392784761523	118461.5478515625	3881748.0	-589.1177355191393	-8168392.0	1.9392063545234628	26888.0	128.0	128.0	128.0	128.0	
-605.0000721216288	-8388608.0	2187.5	-8413049.0	-606.7627968505379	118465.4541015625	3881876.0	-594.1766350479884	-8238536.0	1.7627247289091026	24441.0	128.0	128.0	128.0	128.0	
-605.0000721216288	-8388608.0	2191.40625	-8412064.0	-606.6917570461937	118469.3603515625	3882004.0	-602.7161965031859	-8356941.0	1.6916849245649488	23456.0	128.0	128.0	128.0	128.0	
-605.0000721216288	-8388608.0	2195.3125	-8410911.0	-606.6086008082153	118473.2666015625	3882132.0	-605.0000721216288	-8388608.0	1.6085286865864619	22303.0	128.0	128.0	128.0	128.0	
-605.0000721216288	-8388608.0	2199.21875	-8411571.0	-606.6562010832073	118477.1728515625	3882260.0	-599.6820395805884	-8314871.0	1.656128961578484	22963.0	128.0	128.0	128.0	128.0	
-605.0000721216288	-8388608.0	2203.125	-8411835.0	-606.6752411932041	118481.0791015625	3882388.0	-569.2142575042556	-7892421.0	1.6751690715752927	23227.0	128.0	128.0	128.0	128.0	
-605.0000721216288	-8388608.0	2207.03125	-8410791.0	-606.5999462127622	118484.9853515625	3882516.0	-552.2684153638381	-7657459.0	1.599874091133367	22183.0	128.0	128.0	128.0	128.0	
-605.0000721216288	-8388608.0	2210.9375	-8408536.0	-606.4373119398728	118488.8916015625	3882644.0	-582.342773955199	-8074454.0	1.4372398182439587	19928.0	128.0	128.0	128.0	128.0	
-605.0000721216288	-8388608.0	2214.84375	-8407869.0	-606.3892068134793	118492.7978515625	3882772.0	-594.2513530554	-8239572.0	1.3891346918505063	19261.0	128.0	128.0	128.0	128.0	
-605.0000721216288	-8388608.0	2218.75	-8408871.0	-606.4614726855127	118496.7041015625	3882900.0	-578.4806607342555	-8020904.0	1.4614005638838488	20263.0	128.0	128.0	128.0	128.0	
-605.0000721216288	-8388608.0	2222.65625	-8409592.0	-606.51347237986	118500.6103515625	3883028.0	-521.9174703261222	-7236629.0	1.5134002582311938	20984.0	128.0	128.0	128.0	128.0	
-605.0000721216288	-8388608.0	2226.5625	-8408447.0	-606.4308931149118	118504.5166015625	3883156.0	-504.87895189272786	-7000382.0	1.4308209932829135	19839.0	128.0	128.0	128.0	128.0	
-605.0000721216288	-8388608.0	2230.46875	-8406979.0	-606.3250185638689	118508.4228515625	3883284.0	-538.4851066452393	-7466347.0	1.3249464422400525	18371.0	128.0	128.0	128.0	128.0	
-605.0000721216288	-8388608.0	2234.375	-8406124.0	-606.2633545712656	118512.3291015625	3883412.0	-544.4044893270122	-7548422.0	1.2632824496367514	17516.0	128.0	128.0	128.0	128.0	
-605.0000721216288	-8388608.0	2238.28125	-8406929.0	-606.3214124824301	118516.2353515625	3883540.0	-473.40283732448074	-6563951.0	1.321340360801263	18321.0	128.0	128.0	128.0	128.0	
-605.0000721216288	-8388608.0	2242.1875	-8407269.0	-606.3459338362138	118520.1416015625	3883668.0	-369.5960855002505	-5124622.0	1.345861714585032	18661.0	128.0	128.0	128.0	128.0	
-605.0000721216288	-8388608.0	2246.09375	-8406599.0	-606.2976123449341	118524.0478515625	3883796.0	-321.10568536587783	-4452280.0	1.297540223305252	17991.0	128.0	128.0	128.0	128.0	
-605.0000721216288	-8388608.0	2250.0	-8405287.0	-606.2029887679803	118527.9541015625	3883924.0	-354.37315694965804	-4913549.0	1.2029166463514145	16679.0	128.0	128.0	128.0	128.0	
-605.0000721216288	-8388608.0	2253.90625	-8404905.0	-606.1754383057879	118531.8603515625	3884052.0	-391.30808547831606	-5425669.0	1.1753661841590626	16297.0	128.0	128.0	128.0	128.0	
-605.0000721216288	-8388608.0	2257.8125	-8405142.0	-606.1925311318078	118535.7666015625	3884180.0	-372.7889100061548	-5168892.0	1.192459010178925	16534.0	128.0	128.0	128.0	128.0	
-605.0000721216288	-8388608.0	2261.71875	-8405554.0	-606.2222452428633	118539.6728515625	3884308.0	-327.79301915085546	-4545003.0	1.2221731212345508	16946.0	128.0	128.0	128.0	128.0	
-605.0000721216288	-8388608.0	2265.625	-8404814.0	-606.1688752375693	118543.5791015625	3884436.0	-320.1361543102449	-4438837.0	1.1688031159404655	16206.0	128.0	128.0	128.0	128.0	
-605.0000721216288	-8388608.0	2269.53125	-8403927.0	-606.1049033528452	118547.4853515625	3884564.0	-337.0900019514563	-4673910.0	1.104831231216339	15319.0	128.0	128.0	128.0	128.0	
-605.0000721216288	-8388608.0	2273.4375	-8400902.0	-605.8867354257984	118551.3916015625	3884692.0	-367.38916365971136	-5094022.0	0.886663304169572	12294.0	128.0	128.0	128.0	128.0	
-605.0000721216288	-8388608.0	2277.34375	-8398884.0	-605.7411939789289	118555.2978515625	3884820.0	-362.1795299267209	-5021788.0	0.7411218573000261	10276.0	128.0	128.0	128.0	128.0	
-605.0000721216288	-8388608.0	2281.25	-8396720.0	-605.585122774258	118559.2041015625	3884948.0	-285.0136423127225	-3951847.0	0.5850506526292149	8112.0	128.0	128.0	128.0	128.0	
-503.052471643981	-6975057.0	2285.15625	-6975257.0	-503.06689596973615	118563.1103515625	3885076.0	-165.88652561742373	-2300094.0	0.014424325755158158	200.0	128.0	128.0	128.0	128.0	
-354.54927796712855	-4915991.0	2289.0625	-4903644.0	-353.65879221663386	118567.0166015625	3885204.0	-125.33520225706128	-1737831.0	-0.8904857504946889	-12347.0	128.0	128.0	128.0	128.0	
-362.2561230964808	-5022850.0	2292.96875	-5003709.0	-360.87564300008336	118570.9228515625	3885332.0	-186.37368397398998	-2584158.0	-1.3804800963974115	-19141.0	128.0	128.0	128.0	128.0	
-415.2764827342609	-5758002.0	2296.875	-5741255.0	-414.06866181715276	118574.8291015625	3885460.0	-223.363929791919	-3097045.0	-1.2078209171081684	-16747.0	128.0	128.0	128.0	128.0	
-370.98586928676	-5143892.0	2300.78125	-5131021.0	-370.0575918027868	118578.7353515625	3885588.0	-158.3016381623314	-2194926.0	-0.9282774839732032	-12871.0	128.0	128.0	128.0	128.0	
-266.07515169085883	-3689256.0	2304.6875	-3674954.0	-265.04366815610746	118582.6416015625	3885716.0	-78.75876590714049	-1092027.0	-1.0314835347513598	-14302.0	128.0	128.0	128.0	128.0	
-229.43541698878016	-3181229.0	2308.59375	-3163335.0	-228.14487256346615	118586.5478515625	3885844.0	-92.02979469654497	-1276036.0	-1.2905444253140004	-17894.0	128.0	128.0	128.0	128.0	
-338.16035904411785	-4688751.0	2312.5	-4673860.0	-337.08639587001755	118590.4541015625	3885972.0	-200.17891766773675	-2775574.0	-1.0739631741003006	-14891.0	128.0	128.0	128.0	128.0	
-467.6991704343761	-6484867.0	2316.40625	-6480548.0	-467.3876771196934	118594.3603515625	3886100.0	-269.89990590809657	-3742288.0	-0.3114933146826404	-4319.0	128.0	128.0	128.0	128.0	
-473.3444909268011	-6563142.0	2320.3125	-6568461.0	-473.7281058702595	118598.2666015625	3886228.0	-222.32032982353329	-3082575.0	0.3836149434584312	5319.0	128.0	128.0	128.0	128.0	
-372.4839797596908	-5164664.0	2324.21875	-5171470.0	-372.97483956513884	118602.1728515625	3886356.0	-135.35167042632943	-1876714.0	0.4908598054480321	6806.0	128.0	128.0	128.0	128.0	
-327.4854925257555	-4540739.0	2328.125	-4543776.0	-327.70452591234755	118606.0791015625	3886484.0	-138.60190374873923	-1921780.0	0.21903338659207663	3037.0	128.0	128.0	128.0	128.0	
-429.205765629502	-5951138.0	2332.03125	-5955218.0	-429.50002187490725	118609.9853515625	3886612.0	-237.23919358720704	-3289432.0	0.29425624540522644	4080.0	128.0	128.0	128.0	128.0	
-551.8709530676548	-7651948.0	2335.9375	-7664159.0	-552.751630276636	118613.8916015625	3886740.0	-298.7672369202658	-4142547.0	0.8806772089811813	12211.0	128.0	128.0	128.0	128.0	
-546.9505270660552	-7583724.0	2339.84375	-7602455.0	-548.3014372946545	118617.7978515625	3886868.0	-243.36722414102843	-3374400.0	1.3509102285993373	18731.0	128.0	128.0	128.0	128.0	
-439.81824693897335	-6098285.0	2343.75	-6115361.0	-441.04979587194873	118621.7041015625	3886996.0	-152.6535049263841	-2116612.0	1.2315489329754035	17076.0	128.0	128.0	128.0	128.0	
-396.8219282414828	-5502121.0	2347.65625	-5516239.0	-397.8401413965394	118625.6103515625	3887124.0	-136.7418869426116	-1895990.0	1.0182131550566142	14118.0	128.0	128.0	128.0	128.0	
-414.1880231127767	-5742910.0	2351.5625	-5752091.0	-414.8501717865672	118629.5166015625	3887252.0	-192.2442403130818	-2665556.0	0.6621486737905352	9181.0	128.0	128.0	128.0	128.0	
-543.7765263052614	-7539715.0	2355.46875	-7552229.0	-544.6790563677616	118633.4228515625	3887380.0	-288.104414713909	-3994702.0	0.9025300625002459	12514.0	128.0	128.0	128.0	128.0	
-581.4442827039103	-8061996.0	2359.375	-8080925.0	-582.8094730150073	118637.3291015625	3887508.0	-276.1824209907557	-3829398.0	1.3651903110969439	18929.0	128.0	128.0	128.0	128.0	
-465.8787484024464	-6459626.0	2363.28125	-6478016.0	-467.2050651556332	118641.2353515625	3887636.0	-164.75839910011283	-2284452.0	1.3263167531867925	18390.0	128.0	128.0	128.0	128.0	
-341.3813109852447	-4733411.0	2367.1875	-4743941.0	-342.1407517362538	118645.1416015625	3887764.0	-97.29712573255608	-1349070.0	0.759440751009077	10530.0	128.0	128.0	128.0	128.0	
-352.1923431387357	-4883311.0	2371.09375	-4887340.0	-352.4829211810733	118649.0478515625	3887892.0	-150.2478879985676	-2083257.0	0.2905780423376611	4029.0	128.0	128.0	128.0	128.0	
-466.31674305400173	-6465699.0	2375.0	-6471719.0	-466.750915259232	118652.9541015625	3888020.0	-237.13440086059583	-3287979.0	0.43417220523026057	6020.0	128.0	128.0	128.0	128.0	
-518.5105167043826	-7189390.0	2378.90625	-7202123.0	-519.4288414035847	118656.8603515625	3888148.0	-232.70346435349757	-3226542.0	0.9183246992021441	12733.0	128.0	128.0	128.0	128.0	
-422.54663140137575	-5858806.0	2382.8125	-5872643.0	-423.54457837874634	118660.7666015625	3888276.0	-132.89751564234683	-1842686.0	0.9979469773706171	13837.0	128.0	128.0	128.0	128.0	
-304.2062174327633	-4217961.0	2386.71875	-4225535.0	-304.75246664911117	118664.6728515625	3888404.0	-69.09583796213126	-958046.0	0.5462492163478394	7574.0	128.0	128.0	128.0	128.0	
-311.90123461499627	-4324656.0	2390.625	-4326800.0	-312.05586338709156	118668.5791015625	3888532.0	-120.45199101591004	-1670123.0	0.15462877209529546	2144.0	128.0	128.0	128.0	128.0	
-428.9940165274163	-5948202.0	2394.53125	-5953155.0	-429.3512349547428	118672.4853515625	3888660.0	-210.91140936749093	-2924385.0	0.3572184273264918	4953.0	128.0	128.0	128.0	128.0	
-470.61100907456984	-6525241.0	2398.4375	-6537027.0	-471.4610345913213	118676.3916015625	3888788.0	-202.0139082686792	-2801017.0	0.8500255167514702	11786.0	128.0	128.0	128.0	128.0	
-356.90779947135445	-4948693.0	2402.34375	-4960659.0	-357.7708068812856	118680.2978515625	3888916.0	-94.42041032557611	-1309183.0	0.8630074099311126	11966.0	128.0	128.0	128.0	128.0	
-229.41551141923804	-3180953.0	2406.25	-3185887.0	-229.7713595356178	118684.2041015625	3889044.0	-29.96430098584902	-415469.0	0.3558481163797518	4934.0	128.0	128.0	128.0	128.0	
-226.99042165165207	-3147328.0	2410.15625	-3146382.0	-226.92219459083017	118688.1103515625	3889172.0	-81.87470875676975	-1135231.0	-0.06822706082189808	-946.0	128.0	128.0	128.0	128.0	
-311.94097363245174	-4325207.0	2414.0625	-4326071.0	-312.003286719714	118692.0166015625	3889300.0	-156.66310687817418	-2172207.0	0.06231308726228324	864.0	128.0	128.0	128.0	128.0	
-310.8547497814596	-4310146.0	2417.96875	-4315375.0	-311.2318737783282	118695.9228515625	3889428.0	-126.83179817578771	-1758582.0	0.37712399686861003	5229.0	128.0	128.0	128.0	128.0	
-165.3784287426983	-2293049.0	2421.875	-2295765.0	-165.57431108645335	118699.8291015625	3889556.0	-5.761724801269151	-79889.0	0.1958823437550478	2716.0	128.0	128.0	128.0	128.0	
-76.16195454143937	-1056021.0	2425.78125	-1054185.0	-76.02953923100702	118703.7353515625	3889684.0	47.20209147955078	654479.0	-0.13241531043235188	-1836.0	128.0	128.0	128.0	128.0	
23.474796828603367	325489.0	2429.6875	337003.0	24.30520526232782	118707.6416015625	3889812.0	62.61960418458035	868250.0	-0.8304084337244552	-11514.0	128.0	128.0	128.0	128.0	
-38.109068645127856	-528400.0	2433.59375	-514210.0	-37.085662732799385	118711.5478515625	3889940.0	-23.088946114652888	-320139.0	-1.0234059123284713	-14190.0	128.0	128.0	128.0	128.0	
-120.20360412640622	-1666679.0	2437.5	-1657863.0	-119.56777984711884	118715.4541015625	3890068.0	-71.69553419298342	-994092.0	-0.6358242792873716	-8816.0	128.0	128.0	128.0	128.0	
-65.37638132290618	-906474.0	2441.40625	-902875.0	-65.11681558094212	118719.3603515625	3890196.0	1.127621665909489	15635.0	-0.25956574196407106	-3599.0	128.0	128.0	128.0	128.0	
100.95289897357213	1399759.0	2445.3125	1407210.0	101.49027722958056	118723.2666015625	3890324.0	112.512193025612	1560034.0	-0.5373782560084172	-7451.0	128.0	128.0	128.0	128.0	
210.18976034996038	2914379.0	2449.21875	2930168.0	211.32848874670134	118727.1728515625	3890452.0	131.7181827686051	1826334.0	-1.1387283967409607	-15789.0	128.0	128.0	128.0	128.0	
181.30879834995253	2513931.0	2453.125	2533071.0	182.68920632472117	118731.0791015625	3890580.0	60.29894653546173	836073.0	-1.3804079747686357	-19140.0	128.0	128.0	128.0	128.0	
145.60981817362526	2018948.0	2457.03125	2034139.0	146.7054178363583	118734.9853515625	3890708.0	33.86031137231724	469489.0	-1.0955996627330378	-15191.0	128.0	128.0	128.0	128.0	
280.2717894639718	3886099.0	2460.9375	3899850.0	281.2635339812677	118738.8916015625	3890836.0	144.50527542892402	2003633.0	-0.9917445172958992	-13751.0	128.0	128.0	128.0	128.0	
558.4787366960927	7743568.0	2464.84375	7766872.0	560.1594591330837	118742.7978515625	3890964.0	307.6834175209305	4266174.0	-1.6807224369910285	-23304.0	128.0	128.0	128.0	128.0	
605.0	8388607.0	2468.75	8426654.0	607.7440116100325	118746.7041015625	3891092.0	351.4265556843944	4872693.0	-2.744011610032512	-38047.0	128.0	128.0	128.0	128.0	
605.0	8388607.0	2472.65625	8434013.0	608.2747546761935	118750.6103515625	3891220.0	317.90579294035354	4407912.0	-3.2747546761935564	-45406.0	128.0	128.0	128.0	128.0	
605.0	8388607.0	2476.5625	8434968.0	608.3436308316744	118754.5166015625	3891348.0	334.8843783002351	4643328.0	-3.343630831674437	-46361.0	128.0	128.0	128.0	128.0	
605.0	8388607.0	2480.46875	8431471.0	608.0914214958455	118758.4228515625	3891476.0	390.3021330001513	5411721.0	-3.091421495845496	-42864.0	128.0	128.0	128.0	128.0	
605.0	8388607.0	2484.375	8427386.0	607.7968046422964	118762.3291015625	3891604.0	429.83473835405573	5959859.0	-2.796804642296391	-38779.0	128.0	128.0	128.0	128.0	
605.0	8388607.0	2488.28125	8423661.0	607.5281515751066	118766.2353515625	3891732.0	408.7142078535805	5667013.0	-2.52815157510657	-35054.0	128.0	128.0	128.0	128.0	
605.0	8388607.0	2492.1875	8420031.0	607.2663500626504	118770.1416015625	3891860.0	379.77021155002257	5265691.0	-2.26635006265045	-31424.0	128.0	128.0	128.0	128.0	
605.0	8388607.0	2496.09375	8415764.0	606.9586070726641	118774.0478515625	3891988.0	422.42676525435036	5857144.0	-1.9586070726641505	-27157.0	128.0	128.0	128.0	128.0	
605.0	8388607.0	2500.0	8410679.0	606.5918685903392	118777.9541015625	3892116.0	506.54229301718397	7023445.0	-1.5918685903392542	-22072.0	128.0	128.0	128.0	128.0	
605.0	8388607.0	2503.90625	8408582.0	606.4406295347965	118781.8603515625	3892244.0	545.9007967592236	7569169.0	-1.440629534796421	-19975.0	128.0	128.0	128.0	128.0	
605.0	8388607.0	2507.8125	8405356.0	606.2079651603657	118785.7666015625	3892372.0	573.44570558616	7951092.0	-1.20796516036572	-16749.0	128.0	128.0	128.0	128.0	
605.0	8388607.0	2511.71875	8402869.0	606.0285986696003	118789.6728515625	3892500.0	555.3538507644953	7700240.0	-1.0285986696003282	-14262.0	128.0	128.0	128.0	128.0	
605.0	8388607.0	2515.625	8399568.0	605.7905251730115	118793.5791015625	3892628.0	530.0614446474844	7349549.0	-0.7905251730114429	-10961.0	128.0	128.0	128.0	128.0	
605.0	8388607.0	2519.53125	8395544.0	605.5003077388177	118797.4853515625	3892756.0	557.4498495399773	7729302.0	-0.5003077388176607	-6937.0	128.0	128.0	128.0	128.0	
605.0	8388607.0	2523.4375	8392030.0	605.2468723352995	118801.3916015625	3892884.0	584.0690051399475	8098389.0	-0.24687233529953187	-3423.0	128.0	128.0	128.0	128.0	
605.0	8388607.0	2527.34375	8390510.0	605.1372474595603	118805.2978515625	3893012.0	582.9469368394539	8082831.0	-0.13724745956032988	-1903.0	128.0	128.0	128.0	128.0	
605.0	8388607.0	2531.25	8389406.0	605.0576251813918	118809.2041015625	3893140.0	543.3782706711615	7534193.0	-0.05762518139185684	-799.0	128.0	128.0	128.0	128.0	
605.0	8388607.0	2535.15625	8388443.0	604.9881720528807	118813.1103515625	3893268.0	501.8333997527838	6958154.0	0.011827947119229689	164.0	128.0	128.0	128.0	128.0	
605.0	8388607.0	2539.0625	8386600.0	604.855251891047	118817.0166015625	3893396.0	516.6432156137486	7163499.0	0.1447481089530121	2007.0	128.0	128.0	128.0	128.0	
605.0	8388607.0	2542.96875	8384568.0	604.7087007413746	118820.9228515625	3893524.0	554.4850736242621	7688194.0	0.291299258625419	4039.0	128.0	128.0	128.0	128.0	
605.0	8388607.0	2546.875	8384215.0	604.6832418064167	118824.8291015625	3893652.0	546.8731405583789	7582651.0	0.3167581935832731	4392.0	128.0	128.0	128.0	128.0	
605.0	8388607.0	2550.78125	8384350.0	604.6929782263014	118828.7353515625	3893780.0	487.3499342620295	6757334.0	0.3070217736985414	4257.0	128.0	128.0	128.0	128.0	
605.0	8388607.0	2554.6875	8383503.0	604.6318912067284	118832.6416015625	3893908.0	441.82582459757623	6126121.0	0.3681087932716362	5104.0	128.0	128.0	128.0	128.0	
605.0	8388607.0	2558.59375	8381981.0	604.5221220877316	118836.5478515625	3894036.0	453.3929077855239	6286504.0	0.47787791226838977	6626.0	128.0	128.0	128.0	128.0	
605.0	8388607.0	2562.5	8377303.0	604.1847371083185	118840.4541015625	3894164.0	435.9312517561021	6044390.0	0.8152628916815391	11304.0	128.0	128.0	128.0	128.0	
577.4297764813634	8006333.0	2566.40625	7988078.0	576.1131961480613	118844.3603515625	3894292.0	364.4027512553634	5052614.0	1.316580333302061	18255.0	128.0	128.0	128.0	128.0	
334.3784450743729	4636313.0	2570.3125	4606219.0	332.20801677799426	118848.2666015625	3894420.0	194.68642290668762	2699418.0	2.170428296378648	30094.0	128.0	128.0	128.0	128.0	
19.717115726127115	273387.0	2574.21875	224004.0	16.15553333229224	118852.1728515625	3894548.0	13.24679592213582	183673.0	3.5615823938348767	49383.0	128.0	128.0	128.0	128.0	
-185.7300705587948	-2575234.0	2578.125	-2644590.0	-190.73213824416854	118856.0791015625	3894676.0	-49.12600804877378	-681155.0	5.002067685373746	69356.0	128.0	128.0	128.0	128.0	
-230.71701833212595	-3198999.0	2582.03125	-3275342.0	-236.22299983775613	118859.9853515625	3894804.0	-38.765303345358774	-537499.0	5.505981505630197	76343.0	128.0	128.0	128.0	128.0	
-267.5012847782713	-3709030.0	2585.9375	-3791224.0	-273.4292499338687	118863.8916015625	3894932.0	-19.965358372373387	-276829.0	5.927965155597348	82194.0	128.0	128.0	128.0	128.0	
-369.93325411477736	-5129297.0	2589.84375	-5212412.0	-375.9276432904772	118867.7978515625	3895060.0	-98.87038694267117	-1370884.0	5.994389175699851	83115.0	128.0	128.0	128.0	128.0	
-591.6018929006926	-8202836.0	2593.75	-8290542.0	-597.9273924741021	118871.7041015625	3895188.0	-256.3654168087741	-3554626.0	6.325499573409507	87706.0	128.0	128.0	128.0	128.0	
-605.0000721216288	-8388608.0	2597.65625	-8483233.0	-611.824581244538	118875.6103515625	3895316.0	-324.68500968039154	-4501909.0	6.824509122909204	94625.0	128.0	128.0	128.0	128.0	
-605.0000721216288	-8388608.0	2601.5625	-8485046.0	-611.9553377575086	118879.5166015625	3895444.0	-290.63848026257523	-4029838.0	6.955265635879712	96438.0	128.0	128.0	128.0	128.0	
-605.0000721216288	-8388608.0	2605.46875	-8480602.0	-611.6348292392289	118883.4228515625	3895572.0	-251.0853202444697	-3481415.0	6.634757117600098	91994.0	128.0	128.0	128.0	128.0	
-605.0000721216288	-8388608.0	2609.375	-8472483.0	-611.0492737351983	118887.3291015625	3895700.0	-281.8958964223738	-3908618.0	6.049201613569452	83875.0	128.0	128.0	128.0	128.0	
-605.0000721216288	-8388608.0	2613.28125	-8465982.0	-610.5804110265268	118891.2353515625	3895828.0	-352.84605358195944	-4892375.0	5.580338904898037	77374.0	128.0	128.0	128.0	128.0	
-605.0000721216288	-8388608.0	2617.1875	-8460182.0	-610.1621055796272	118895.1416015625	3895956.0	-346.43242137818595	-4803447.0	5.16203345799845	71574.0	128.0	128.0	128.0	128.0	
-605.0000721216288	-8388608.0	2621.09375	-8454672.0	-609.7647154050727	118899.0478515625	3896084.0	-285.9202111864342	-3964417.0	4.764643283443843	66064.0	128.0	128.0	128.0	128.0	
-605.0000721216288	-8388608.0	2625.0	-8448331.0	-609.3073921570053	118902.9541015625	3896212.0	-219.94255184442426	-3049606.0	4.307320035376553	59723.0	128.0	128.0	128.0	128.0	
-605.0000721216288	-8388608.0	2628.90625	-8441233.0	-608.7954728359548	118906.8603515625	3896340.0	-222.2324135580556	-3081356.0	3.7954007143259902	52625.0	128.0	128.0	128.0	128.0	
