TIMESTAMP_MS,COUNTER,DEVICE_ID,PULSE_BPM,SPO2_PCT,SPO2_STATUS,PLETH,BATTERY_PCT,RED_ADC,IR_ADC,PERFUSION_INDEX
0,65683,1,255,12.7,2,0,93.8,393981,275407,0.0
10,65684,1,255,12.7,2,0,93.8,393969,275343,0.0
20,65685,1,255,12.7,2,0,93.8,393856,275319,0.0
30,65686,1,255,12.7,2,0,93.8,393806,275303,0.0
40,65687,1,255,12.7,2,0,93.8,393802,275280,0.0
50,65688,1,255,12.7,2,0,93.8,393828,275279,0.0
60,65689,1,255,12.7,2,0,93.8,393765,275225,0.0
70,65690,1,255,12.7,2,0,93.8,393715,275243,0.0
80,65691,1,255,12.7,2,0,93.8,393737,275218,0.0
90,65692,1,255,12.7,2,0,93.8,393717,275219,0.0
100,65693,1,255,12.7,2,0,93.8,393692,275287,0.0
110,65694,1,255,12.7,2,0,93.8,393661,275199,0.0
120,65695,1,255,12.7,2,0,93.8,393710,275197,0.0
130,65696,1,255,12.7,2,0,93.8,393702,275192,0.0
140,65697,1,255,12.7,2,0,93.8,393647,275148,0.0
150,65698,1,255,12.7,2,0,93.8,393602,275168,0.0
160,65699,1,255,12.7,2,0,93.8,393626,275137,0.0
170,65700,1,255,12.7,2,0,93.8,393690,275165,0.0
180,65701,1,255,12.7,2,0,93.8,393631,275160,0.0
190,65702,1,255,12.7,2,0,93.8,393685,275169,0.0
200,65703,1,255,12.7,2,0,93.8,393776,275232,0.0
210,65704,1,255,12.7,2,0,93.8,393766,275206,0.0
220,65705,1,255,12.7,2,0,93.8,393765,275241,0.0
230,65706,1,255,12.7,2,0,93.8,393792,275258,0.0
240,65707,1,255,12.7,2,0,93.8,393750,275270,0.0
250,65708,1,255,12.7,2,0,93.8,393796,275327,0.0
260,65709,1,255,12.7,2,0,93.8,393842,275308,0.0
270,65710,1,255,12.7,2,0,93.8,393849,275315,0.0
280,65711,1,255,12.7,2,0,93.8,393904,275316,0.0
290,65712,1,255,12.7,2,0,93.8,393890,275380,0.0
300,65713,1,255,12.7,2,0,93.8,393885,275374,0.0
310,65714,1,255,12.7,2,0,93.8,393896,275369,0.0
320,65715,1,255,12.7,2,0,93.8,393907,275394,0.0
330,65716,1,255,12.7,2,0,93.8,393894,275359,0.0
340,65717,1,255,12.7,2,0,93.8,393985,275390,0.0
350,65718,1,255,12.7,2,0,93.8,393982,275412,0.0
360,65719,1,255,12.7,2,0,93.8,393960,275410,0.0
370,65720,1,255,12.7,2,0,93.8,393984,275414,0.0
380,65721,1,255,12.7,2,0,93.8,394051,275429,0.0
390,65722,1,255,12.7,2,0,93.8,394046,275409,0.0
400,65723,1,255,12.7,2,0,93.8,394039,275462,0.0
410,65724,1,255,12.7,2,0,93.8,394060,275440,0.0
420,65725,1,255,12.7,2,0,93.8,394034,275439,0.0
430,65726,1,255,12.7,2,0,93.8,394060,275468,0.0
440,65727,1,255,12.7,2,0,93.8,394060,275428,0.0
450,65728,1,255,12.7,2,0,93.8,394044,275447,0.0
460,65729,1,255,12.7,2,0,93.8,394021,275464,0.0
470,65730,1,255,12.7,2,0,93.8,394133,275513,0.0
480,65731,1,255,12.7,2,0,93.8,394166,275512,0.0
490,65732,1,255,12.7,2,0,93.8,394147,275539,0.0
500,65733,1,255,12.7,2,0,93.8,394305,275577,0.0
510,65734,1,255,12.7,2,0,93.8,394172,275558,0.0
520,65735,1,255,12.7,2,0,93.8,394174,275575,0.0
530,65736,1,255,12.7,2,0,93.8,394191,275545,0.0
540,65737,1,255,12.7,2,0,93.8,394209,275590,0.0
550,65738,1,255,12.7,2,0,93.8,394245,275591,0.0
560,65739,1,255,12.7,2,0,93.8,394264,275655,0.0
570,65740,1,255,12.7,2,0,93.8,394252,275598,0.0
580,65741,1,255,12.7,2,0,93.8,394236,275604,0.0
590,65742,1,255,12.7,2,0,93.8,394233,275589,0.0
600,65743,1,255,12.7,2,0,93.8,394321,275662,0.0
610,65744,1,255,12.7,2,0,93.8,394315,275633,0.0
620,65745,1,255,12.7,2,0,93.8,394240,275629,0.0
630,65746,1,255,12.7,2,0,93.8,394274,275642,0.0
640,65747,1,255,12.7,2,0,93.8,394324,275661,0.0
650,65748,1,255,12.7,2,0,93.8,394286,275634,0.0
660,65749,1,255,12.7,2,0,93.8,394321,275647,0.0
670,65750,1,255,12.7,2,0,93.8,394249,275619,0.0
680,65751,1,255,12.7,2,0,93.8,394287,275652,0.0
690,65752,1,255,12.7,2,0,93.8,394263,275588,0.0
700,65753,1,255,12.7,2,0,93.8,394273,275602,0.0
710,65754,1,255,12.7,2,0,93.8,394202,275605,0.0
720,65755,1,255,12.7,2,0,93.8,394221,275552,0.0
730,65756,1,255,12.7,2,0,93.8,394142,275522,0.0
740,65757,1,255,12.7,2,0,93.8,394137,275526,0.0
750,65758,1,255,12.7,2,0,93.8,394105,275471,0.0
760,65759,1,255,12.7,2,0,93.8,394036,275454,0.0
770,65760,1,255,12.7,2,0,93.8,394030,275427,0.0
780,65761,1,255,12.7,2,0,93.8,393991,275457,0.0
790,65762,1,255,12.7,2,0,93.8,394003,275399,0.0
800,65763,1,255,12.7,2,0,93.8,393932,275358,0.0
810,65764,1,255,12.7,2,0,93.8,393926,275386,0.0
820,65765,1,255,12.7,2,0,93.8,393930,275329,0.0
830,65766,1,255,12.7,2,0,93.8,393863,275338,0.0
840,65767,1,255,12.7,2,0,93.8,393944,275334,0.0
850,65768,1,255,12.7,2,0,93.8,393934,275319,0.0
860,65769,1,255,12.7,2,0,93.8,393879,275330,0.0
870,65770,1,255,12.7,2,0,93.8,393899,275344,0.0
880,65771,1,255,12.7,2,0,93.8,393895,275343,0.0
890,65772,1,255,12.7,2,0,93.8,393867,275364,0.0
900,65773,1,255,12.7,2,0,93.8,393914,275383,0.0
910,65774,1,255,12.7,2,0,93.8,393966,275361,0.0
920,65775,1,255,12.7,2,0,93.8,393996,275407,0.0
930,65776,1,255,12.7,2,0,93.8,394002,275393,0.0
940,65777,1,255,12.7,2,0,93.8,393961,275447,0.0
950,65778,1,255,12.7,2,0,93.8,394026,275413,0.0
960,65779,1,255,12.7,2,0,93.8,394044,275487,0.0
970,65780,1,255,12.7,2,0,93.8,394038,275474,0.0
980,65781,1,255,12.7,2,0,93.8,394063,275490,0.0
990,65782,1,255,12.7,2,0,93.8,394099,275546,0.0
1000,65783,1,255,12.7,2,0,93.8,394100,275536,0.0
1010,65784,1,255,12.7,2,0,93.8,394110,275564,0.0
1020,65785,1,255,12.7,2,0,93.8,394138,275550,0.0
1030,65786,1,255,12.7,2,0,93.8,394152,275539,0.0
1040,65787,1,255,12.7,2,0,93.8,394123,275494,0.0
1050,65788,1,255,12.7,2,0,93.8,394205,275547,0.0
1060,65789,1,255,12.7,2,0,93.8,394194,275565,0.0
1070,65790,1,255,12.7,2,0,93.8,394139,275526,0.0
1080,65791,1,255,12.7,2,0,93.8,394174,275572,0.0
1090,65792,1,255,12.7,2,0,93.8,394242,275568,0.0
1100,65793,1,255,12.7,2,0,93.8,394320,275615,0.0
1110,65794,1,255,12.7,2,0,93.8,394298,275650,0.0
1120,65795,1,255,12.7,2,0,93.8,394242,275658,0.0
1130,65796,1,255,12.7,2,0,93.8,394255,275660,0.0
1140,65797,1,255,12.7,2,0,93.8,394333,275655,0.0
1150,65798,1,255,12.7,2,0,93.8,394325,275649,0.0
1160,65799,1,255,12.7,2,0,93.8,394382,275691,0.0
1170,65800,1,255,12.7,2,0,93.8,394356,275682,0.0
1180,65801,1,255,12.7,2,0,93.8,394351,275681,0.0
1190,65802,1,255,12.7,2,0,93.8,394386,275685,0.0
1200,65803,1,255,12.7,2,0,93.8,394360,275719,0.0
1210,65804,1,255,12.7,2,0,93.8,394362,275681,0.0
1220,65805,1,255,12.7,2,0,93.8,394356,275662,0.0
1230,65806,1,255,12.7,2,0,93.8,394440,275717,0.0
1240,65807,1,255,12.7,2,0,93.8,394376,275699,0.0
1250,65808,1,255,12.7,2,0,93.8,394436,275756,0.0
1260,65809,1,255,12.7,2,0,93.8,394456,275753,0.0
1270,65810,1,255,12.7,2,0,93.8,394409,275731,0.0
1280,65811,1,255,12.7,2,0,93.8,394551,275782,0.0
1290,65812,1,255,12.7,2,0,93.8,394505,275811,0.0
1300,65813,1,255,12.7,2,0,93.8,394524,275831,0.0
1310,65814,1,255,12.7,2,0,93.8,394509,275830,0.0
1320,65815,1,255,12.7,2,0,93.8,394596,275855,0.0
1330,65816,1,255,12.7,2,0,93.8,394588,275818,0.0
1340,65817,1,255,12.7,2,0,93.8,394569,275890,0.0
1350,65818,1,255,12.7,2,0,93.8,394639,275888,0.0
1360,65819,1,255,12.7,2,0,93.8,394642,275933,0.0
1370,65820,1,255,12.7,2,0,93.8,394714,275941,0.0
1380,65821,1,255,12.7,2,0,93.8,394634,275947,0.0
1390,65822,1,255,12.7,2,0,93.8,394700,275920,0.0
1400,65823,1,255,12.7,2,0,93.8,394608,275902,0.0
1410,65824,1,255,12.7,2,0,93.8,394632,275863,0.0
1420,65825,1,255,12.7,2,0,93.8,394499,275837,0.0
1430,65826,1,255,12.7,2,0,93.8,394486,275742,0.0
1440,65827,1,255,12.7,2,0,93.8,394384,275705,0.0
1450,65828,1,255,12.7,2,0,93.8,394358,275658,0.0
1460,65829,1,255,12.7,2,0,93.8,394288,275606,0.0
1470,65830,1,255,12.7,2,0,93.8,394258,275621,0.0
1480,65831,1,255,12.7,2,0,93.8,394221,275595,0.0
1490,65832,1,255,12.7,2,0,93.8,394251,275590,0.0
1500,65833,1,255,12.7,2,0,93.8,394206,275605,0.0
1510,65834,1,255,12.7,2,0,93.8,394145,275547,0.0
1520,65835,1,255,12.7,2,0,93.8,394161,275561,0.0
1530,65836,1,255,12.7,2,0,93.8,394125,275509,0.0
1540,65837,1,255,12.7,2,0,93.8,394135,275542,0.0
1550,65838,1,255,12.7,2,0,93.8,394121,275490,0.0
1560,65839,1,255,12.7,2,0,93.8,394091,275478,0.0
1570,65840,1,255,12.7,2,0,93.8,394116,275447,0.0
1580,65841,1,255,12.7,2,0,93.8,394128,275474,0.0
1590,65842,1,255,12.7,2,0,93.8,394062,275453,0.0
1600,65843,1,255,12.7,2,0,93.8,394163,275508,0.0
1610,65844,1,255,12.7,2,0,93.8,394074,275520,0.0
1620,65845,1,255,12.7,2,0,93.8,394088,275493,0.0
1630,65846,1,255,12.7,2,0,93.8,394130,275541,0.0
1640,65847,1,255,12.7,2,0,93.8,394198,275528,0.0
1650,65848,1,255,12.7,2,0,93.8,394153,275517,0.0
1660,65849,1,255,12.7,2,0,93.8,394231,275540,0.0
1670,65850,1,255,12.7,2,0,93.8,394158,275548,0.0
1680,65851,1,255,12.7,2,0,93.8,394265,275585,0.0
1690,65852,1,255,12.7,2,0,93.8,394294,275588,0.0
1700,65853,1,255,12.7,2,0,93.8,394308,275633,0.0
1710,65854,1,255,12.7,2,0,93.8,394300,275628,0.0
1720,65855,1,255,12.7,2,0,93.8,394054,275666,0.0
1730,65856,1,255,12.7,2,0,93.8,394281,275661,0.0
1740,65857,1,255,12.7,2,0,93.8,394335,275629,0.0
1750,65858,1,255,12.7,2,0,93.8,394325,275645,0.0
1760,65859,1,255,12.7,2,0,93.8,394251,275652,0.0
1770,65860,1,255,12.7,2,0,93.8,394375,275693,0.0
1780,65861,1,255,12.7,2,0,93.8,394326,275655,0.0
1790,65862,1,255,12.7,2,0,93.8,394295,275640,0.0
1800,65863,1,255,12.7,2,0,93.8,394316,275645,0.0
1810,65864,1,255,12.7,2,0,93.8,394340,275678,0.0
1820,65865,1,255,12.7,2,0,93.8,394084,275667,0.0
1830,65866,1,255,12.7,2,0,93.8,394323,275701,0.0
1840,65867,1,255,12.7,2,0,93.8,394380,275667,0.0
1850,65868,1,255,12.7,2,0,93.8,394392,275707,0.0
1860,65869,1,255,12.7,2,0,93.8,394393,275702,0.0
1870,65870,1,255,12.7,2,0,93.8,394389,275750,0.0
1880,65871,1,255,12.7,2,0,93.8,394448,275744,0.0
1890,65872,1,255,12.7,2,0,93.8,394372,275739,0.0
1900,65873,1,255,12.7,2,0,93.8,394405,275747,0.0
1910,65874,1,255,12.7,2,0,93.8,394411,275769,0.0
1920,65875,1,255,12.7,2,0,93.8,394223,275791,0.0
1930,65876,1,255,12.7,2,0,93.8,394474,275787,0.0
1940,65877,1,255,12.7,2,0,93.8,394465,275772,0.0
1950,65878,1,255,12.7,2,0,93.8,394367,275714,0.0
1960,65879,1,255,12.7,2,0,93.8,394383,275767,0.0
1970,65880,1,255,12.7,2,0,93.8,394427,275775,0.0
1980,65881,1,255,12.7,2,0,93.8,394471,275755,0.0
1990,65882,1,255,12.7,2,0,93.8,394446,275763,0.0
2000,65883,1,255,12.7,2,0,93.8,394491,275737,0.0
2010,65884,1,255,12.7,2,0,93.8,394492,275782,0.0
2020,65885,1,255,12.7,2,0,93.8,394490,275782,0.0
2030,65886,1,255,12.7,2,0,93.8,394495,275844,0.0
2040,65887,1,255,12.7,2,0,93.8,394582,275829,0.0
2050,65888,1,255,12.7,2,0,93.8,394504,275806,0.0
2060,65889,1,255,12.7,2,0,93.8,394533,275830,0.0
2070,65890,1,255,12.7,2,0,93.8,394547,275821,0.0
2080,65891,1,255,12.7,2,0,93.8,394499,275837,0.0
2090,65892,1,255,12.7,2,0,93.8,394525,275793,0.0
2100,65893,1,255,12.7,2,0,93.8,394439,275750,0.0
2110,65894,1,255,12.7,2,0,93.8,394373,275761,0.0
2120,65895,1,255,12.7,2,0,93.8,394376,275726,0.0
2130,65896,1,255,12.7,2,0,93.8,394369,275705,0.0
2140,65897,1,255,12.7,2,0,93.8,394334,275617,0.0
2150,65898,1,255,12.7,2,0,93.8,394229,275594,0.0
2160,65899,1,255,12.7,2,0,93.8,394167,275573,0.0
2170,65900,1,255,12.7,2,0,93.8,394114,275511,0.0
2180,65901,1,255,12.7,2,0,93.8,394087,275476,0.0
2190,65902,1,255,12.7,2,0,93.8,394148,275500,0.0
2200,65903,1,255,12.7,2,0,93.8,394082,275491,0.0
2210,65904,1,255,12.7,2,0,93.8,394072,275451,0.0
2220,65905,1,255,12.7,2,0,93.8,394055,275472,0.0
2230,65906,1,255,12.7,2,0,93.8,394072,275480,0.0
2240,65907,1,255,12.7,2,0,93.8,393964,275378,0.0
2250,65908,1,255,12.7,2,0,93.8,393962,275435,0.0
2260,65909,1,255,12.7,2,0,93.8,394028,275399,0.0
2270,65910,1,255,12.7,2,0,93.8,393994,275430,0.0
2280,65911,1,255,12.7,2,0,93.8,394009,275431,0.0
2290,65912,1,255,12.7,2,0,93.8,394018,275435,0.0
2300,65913,1,255,12.7,2,0,93.8,394064,275440,0.0
2310,65914,1,255,12.7,2,0,93.8,394087,275490,0.0
2320,65915,1,255,12.7,2,0,93.8,394078,275472,0.0
2330,65916,1,255,12.7,2,0,93.8,394188,275504,0.0
2340,65917,1,255,12.7,2,0,93.8,394113,275517,0.0
2350,65918,1,255,12.7,2,0,93.8,394125,275540,0.0
2360,65919,1,255,12.7,2,0,93.8,394119,275524,0.0
2370,65920,1,255,12.7,2,0,93.8,394142,275512,0.0
2380,65921,1,255,12.7,2,0,93.8,394169,275516,0.0
2390,65922,1,255,12.7,2,0,93.8,394137,275572,0.0
2400,65923,1,255,12.7,2,0,93.8,394202,275572,0.0
2410,65924,1,255,12.7,2,0,93.8,394223,275540,0.0
2420,65925,1,255,12.7,2,0,93.8,394220,275562,0.0
2430,65926,1,255,12.7,2,0,93.8,394223,275590,0.0
2440,65927,1,255,12.7,2,0,93.8,394290,275640,0.0
2450,65928,1,255,12.7,2,0,93.8,394315,275650,0.0
2460,65929,1,255,12.7,2,0,93.8,394292,275609,0.0
2470,65930,1,255,12.7,2,0,93.8,394305,275680,0.0
2480,65931,1,255,12.7,2,0,93.8,394292,275624,0.0
2490,65932,1,255,12.7,2,0,93.8,394326,275675,0.0
2500,65933,1,255,12.7,2,0,93.8,394322,275665,0.0
2510,65934,1,255,12.7,2,0,93.8,394370,275672,0.0
2520,65935,1,255,12.7,2,0,93.8,394252,275617,0.0
2530,65936,1,255,12.7,2,0,93.8,394331,275658,0.0
2540,65937,1,255,12.7,2,0,93.8,394315,275701,0.0
2550,65938,1,255,12.7,2,0,93.8,394401,275723,0.0
2560,65939,1,255,12.7,2,0,93.8,394389,275709,0.0
2570,65940,1,255,12.7,2,0,93.8,394332,275725,0.0
2580,65941,1,255,12.7,2,0,93.8,394407,275687,0.0
2590,65942,1,255,12.7,2,0,93.8,394386,275742,0.0
2600,65943,1,255,12.7,2,0,93.8,394394,275703,0.0
2610,65944,1,255,12.7,2,0,93.8,394336,275696,0.0
2620,65945,1,255,12.7,2,0,93.8,394407,275587,0.0
2630,65946,1,255,12.7,2,0,93.8,394425,275756,0.0
2640,65947,1,255,12.7,2,0,93.8,394404,275743,0.0
2650,65948,1,255,12.7,2,0,93.8,394475,275798,0.0
2660,65949,1,255,12.7,2,0,93.8,394478,275764,0.0
2670,65950,1,255,12.7,2,0,93.8,394377,275769,0.0
2680,65951,1,255,12.7,2,0,93.8,394444,275756,0.0
2690,65952,1,255,12.7,2,0,93.8,394457,275795,0.0
2700,65953,1,255,12.7,2,0,93.8,394519,275825,0.0
2710,65954,1,255,12.7,2,0,93.8,394565,275861,0.0
2720,65955,1,255,12.7,2,0,93.8,394488,275658,0.0
2730,65956,1,255,12.7,2,0,93.8,394509,275787,0.0
2740,65957,1,255,12.7,2,0,93.8,394519,275813,0.0
2750,65958,1,255,12.7,2,0,93.8,394581,275810,0.0
2760,65959,1,255,12.7,2,0,93.8,394528,275830,0.0
2770,65960,1,255,12.7,2,0,93.8,394555,275801,0.0
2780,65961,1,255,12.7,2,0,93.8,394560,275846,0.0
2790,65962,1,255,12.7,2,0,93.8,394556,275813,0.0
2800,65963,1,255,12.7,2,0,93.8,394520,275757,0.0
2810,65964,1,255,12.7,2,0,93.8,394454,275757,0.0
2820,65965,1,255,12.7,2,0,93.8,394426,275582,0.0
2830,65966,1,255,12.7,2,0,93.8,394399,275659,0.0
2840,65967,1,255,12.7,2,0,93.8,394345,275633,0.0
2850,65968,1,255,12.7,2,0,93.8,394340,275592,0.0
2860,65969,1,255,12.7,2,0,93.8,394371,275559,0.0
2870,65970,1,255,12.7,2,0,93.8,394196,275548,0.0
2880,65971,1,255,12.7,2,0,93.8,394219,275518,0.0
2890,65972,1,255,12.7,2,0,93.8,394187,275479,0.0
2900,65973,1,255,12.7,2,0,93.8,394157,275515,0.0
2910,65974,1,255,12.7,2,0,93.8,394143,275457,0.0
2920,65975,1,255,12.7,2,0,93.8,394109,275441,0.0
2930,65976,1,255,12.7,2,0,93.8,394101,275415,0.0
2940,65977,1,255,12.7,2,0,93.8,394128,275438,0.0
4680,66151,1,255,12.7,2,0,93.3,394677,275867,0.0
4690,66152,1,255,12.7,2,0,93.3,394680,275907,0.0
4700,66153,1,255,12.7,2,0,93.3,394693,275899,0.0
4710,66154,1,255,12.7,2,0,93.3,394665,275894,0.0
4720,66155,1,255,12.7,2,0,93.3,394726,275914,0.0
4730,66156,1,255,12.7,2,0,93.3,394713,275924,0.0
4740,66157,1,255,12.7,2,0,93.3,394703,275911,0.0
4750,66158,1,255,12.7,2,0,93.3,394715,275860,0.0
4760,66159,1,255,12.7,2,0,93.3,394745,275957,0.0
4770,66160,1,255,12.7,2,0,93.3,394814,275968,0.0
4780,66161,1,255,12.7,2,0,93.3,394775,275945,0.0
4790,66162,1,255,12.7,2,0,93.3,394832,276012,0.0
4800,66163,1,255,12.7,2,0,93.3,394870,275985,0.0
4810,66164,1,255,12.7,2,0,93.3,394851,275993,0.0
4820,66165,1,255,12.7,2,0,93.3,394856,276011,0.0
4830,66166,1,255,12.7,2,0,93.3,394897,276006,0.0
4840,66167,1,255,12.7,2,0,93.3,394911,276027,0.0
4850,66168,1,255,12.7,2,0,93.3,394917,276026,0.0
4860,66169,1,255,12.7,2,0,93.3,394910,276004,0.0
4870,66170,1,255,12.7,2,0,93.3,394862,276017,0.0
4880,66171,1,255,12.7,2,0,93.3,394888,276068,0.0
4890,66172,1,255,12.7,2,0,93.3,394912,276044,0.0
4900,66173,1,255,12.7,2,0,93.3,394873,276023,0.0
4910,66174,1,255,12.7,2,0,93.3,394822,276021,0.0
4920,66175,1,255,12.7,2,0,93.3,394755,275950,0.0
4930,66176,1,255,12.7,2,0,93.3,394721,275895,0.0
4940,66177,1,255,12.7,2,0,93.3,394672,275893,0.0
4950,66178,1,255,12.7,2,0,93.3,394668,275867,0.0
4960,66179,1,255,12.7,2,0,93.3,394666,275859,0.0
4970,66180,1,255,12.7,2,0,93.3,394535,275774,0.0
4980,66181,1,255,12.7,2,0,93.3,394491,275758,0.0
4990,66182,1,255,12.7,2,0,93.3,394540,275756,0.0
5000,66183,1,255,12.7,2,0,93.3,394574,275758,0.0
5010,66184,1,255,12.7,2,0,93.3,394456,275709,0.0
5020,66185,1,255,12.7,2,0,93.3,394452,275712,0.0
5030,66186,1,255,12.7,2,0,93.3,394351,275665,0.0
5040,66187,1,255,12.7,2,0,93.3,394460,275690,0.0
5050,66188,1,255,12.7,2,0,93.3,394415,275641,0.0
5060,66189,1,255,12.7,2,0,93.3,394334,275646,0.0
5070,66190,1,255,12.7,2,0,93.3,394389,275615,0.0
5080,66191,1,255,12.7,2,0,93.3,394374,275650,0.0
5090,66192,1,255,12.7,2,0,93.3,394410,275676,0.0
5100,66193,1,255,12.7,2,0,93.3,394408,275675,0.0
5110,66194,1,255,12.7,2,0,93.3,394431,275682,0.0
5120,66195,1,255,12.7,2,0,93.3,394428,275696,0.0
5130,66196,1,255,12.7,2,0,93.3,394471,275730,0.0
5140,66197,1,255,12.7,2,0,93.3,394490,275744,0.0
5150,66198,1,255,12.7,2,0,93.3,394494,275747,0.0
5160,66199,1,255,12.7,2,0,93.3,394564,275818,0.0
5170,66200,1,255,12.7,2,0,93.3,394592,275737,0.0
5180,66201,1,255,12.7,2,0,93.3,394555,275800,0.0
5190,66202,1,255,12.7,2,0,93.3,394612,275782,0.0
5200,66203,1,255,12.7,2,0,93.3,394587,275833,0.0
5210,66204,1,255,12.7,2,0,93.3,394664,275825,0.0
5220,66205,1,255,12.7,2,0,93.3,394611,275853,0.0
5230,66206,1,255,12.7,2,0,93.3,394692,275851,0.0
5240,66207,1,255,12.7,2,0,93.3,394647,275885,0.0
5250,66208,1,255,12.7,2,0,93.3,394717,275880,0.0
5260,66209,1,255,12.7,2,0,93.3,394753,275882,0.0
5270,66210,1,255,12.7,2,0,93.3,394729,275904,0.0
5280,66211,1,255,12.7,2,0,93.3,394696,275885,0.0
5290,66212,1,255,12.7,2,0,93.3,394699,275876,0.0
5300,66213,1,255,12.7,2,0,93.3,394722,275906,0.0
5310,66214,1,255,12.7,2,0,93.3,394699,275857,0.0
5320,66215,1,255,12.7,2,0,93.3,394676,275892,0.0
5330,66216,1,255,12.7,2,0,93.3,394716,275903,0.0
5340,66217,1,255,12.7,2,0,93.3,394741,275940,0.0
5350,66218,1,255,12.7,2,0,93.3,394772,275924,0.0
5360,66219,1,255,12.7,2,0,93.3,394827,275987,0.0
5370,66220,1,255,12.7,2,0,93.3,394801,276029,0.0
5380,66221,1,255,12.7,2,0,93.3,394840,275961,0.0
5390,66222,1,255,12.7,2,0,93.3,394799,275959,0.0
5400,66223,1,255,12.7,2,0,93.3,394808,275965,0.0
5410,66224,1,255,12.7,2,0,93.3,394828,275976,0.0
5420,66225,1,255,12.7,2,0,93.3,394873,275999,0.0
5430,66226,1,255,12.7,2,0,93.3,394860,275970,0.0
5440,66227,1,255,12.7,2,0,93.3,394819,276020,0.0
5450,66228,1,255,12.7,2,0,93.3,394838,275981,0.0
5460,66229,1,255,12.7,2,0,93.3,394882,276000,0.0
5470,66230,1,255,12.7,2,0,93.3,394859,276027,0.0
5480,66231,1,255,12.7,2,0,93.3,394917,276027,0.0
5490,66232,1,255,12.7,2,0,93.3,394958,276015,0.0
5500,66233,1,255,12.7,2,0,93.3,394955,276096,0.0
5510,66234,1,255,12.7,2,0,93.3,394952,276080,0.0
5520,66235,1,255,12.7,2,0,93.3,394938,276068,0.0
5530,66236,1,255,12.7,2,0,93.3,395002,276132,0.0
5540,66237,1,255,12.7,2,0,93.3,394985,276127,0.0
5550,66238,1,255,12.7,2,0,93.3,395004,276139,0.0
5560,66239,1,255,12.7,2,0,93.3,395041,276086,0.0
5570,66240,1,255,12.7,2,0,93.3,395056,276173,0.0
5580,66241,1,255,12.7,2,0,93.3,395043,276141,0.0
5590,66242,1,255,12.7,2,0,93.3,395079,276128,0.0
5600,66243,1,255,12.7,2,0,93.3,395125,276171,0.0
5610,66244,1,255,12.7,2,0,93.3,394949,276111,0.0
5620,66245,1,255,12.7,2,0,93.3,394893,276026,0.0
5630,66246,1,255,12.7,2,0,93.3,394923,276047,0.0
5640,66247,1,255,12.7,2,0,93.3,394867,275978,0.0
5650,66248,1,255,12.7,2,0,93.3,394751,275953,0.0
5660,66249,1,255,12.7,2,0,93.3,394716,275909,0.0
5670,66250,1,255,12.7,2,0,93.3,394669,275895,0.0
5680,66251,1,255,12.7,2,0,93.3,394701,275873,0.0
5690,66252,1,255,12.7,2,0,93.3,394682,275835,0.0
5700,66253,1,255,12.7,2,0,93.3,394595,275809,0.0
5710,66254,1,255,12.7,2,0,93.3,394608,275825,0.0
5720,66255,1,255,12.7,2,0,93.3,394561,275761,0.0
5730,66256,1,255,12.7,2,0,93.3,394611,275771,0.0
5740,66257,1,255,12.7,2,0,93.3,394521,275751,0.0
5750,66258,1,255,12.7,2,0,93.3,394570,275762,0.0
5760,66259,1,255,12.7,2,0,93.3,394561,275768,0.0
5770,66260,1,255,12.7,2,0,93.3,394497,275762,0.0
5780,66261,1,255,12.7,2,0,93.3,394547,275780,0.0
5790,66262,1,255,12.7,2,0,93.3,394509,275741,0.0
5800,66263,1,255,12.7,2,0,93.3,394497,275690,0.0
5810,66264,1,255,12.7,2,0,93.3,394571,275777,0.0
5820,66265,1,255,12.7,2,0,93.3,394505,275695,0.0
5830,66266,1,255,12.7,2,0,93.3,394552,275805,0.0
5840,66267,1,255,12.7,2,0,93.3,394548,275771,0.0
5850,66268,1,255,12.7,2,0,93.3,394597,275785,0.0
5860,66269,1,255,12.7,2,0,93.3,394588,275782,0.0
5870,66270,1,255,12.7,2,0,93.3,394566,275769,0.0
5880,66271,1,255,12.7,2,0,93.3,394561,275828,0.0
5890,66272,1,255,12.7,2,0,93.3,394633,275846,0.0
5900,66273,1,255,12.7,2,0,93.3,394646,275834,0.0
5910,66274,1,255,12.7,2,0,93.3,394728,275853,0.0
5920,66275,1,255,12.7,2,0,93.3,394718,275887,0.0
5930,66276,1,255,12.7,2,0,93.3,394715,275916,0.0
5940,66277,1,255,12.7,2,0,93.3,394800,275901,0.0
5950,66278,1,255,12.7,2,0,93.3,394796,275963,0.0
5960,66279,1,255,12.7,2,0,93.3,394785,276020,0.0
5970,66280,1,255,12.7,2,0,93.3,394908,275985,0.0
5980,66281,1,255,12.7,2,0,93.3,394793,275999,0.0
5990,66282,1,255,12.7,2,0,93.3,394844,276004,0.0
6000,66283,1,255,12.7,2,0,93.3,394860,275983,0.0
6010,66284,1,255,12.7,2,0,93.3,394885,276032,0.0
6020,66285,1,255,12.7,2,0,93.3,394800,276005,0.0
6030,66286,1,255,12.7,2,0,93.3,394855,275944,0.0
6040,66287,1,255,12.7,2,0,93.3,394852,276038,0.0
6050,66288,1,255,12.7,2,0,93.3,394843,275991,0.0
6060,66289,1,255,12.7,2,0,93.3,394857,276040,0.0
6070,66290,1,255,12.7,2,0,93.3,394883,276042,0.0
6080,66291,1,255,12.7,2,0,93.3,394859,276070,0.0
6090,66292,1,255,12.7,2,0,93.3,394923,276077,0.0
6100,66293,1,255,12.7,2,0,93.3,394931,276030,0.0
6110,66294,1,255,12.7,2,0,93.3,395008,276124,0.0
6120,66295,1,255,12.7,2,0,93.3,394937,276100,0.0
6130,66296,1,255,12.7,2,0,93.3,394975,276110,0.0
6140,66297,1,255,12.7,2,0,93.3,395023,276110,0.0
6150,66298,1,255,12.7,2,0,93.3,395101,276140,0.0
6160,66299,1,255,12.7,2,0,93.3,395103,276129,0.0
6170,66300,1,255,12.7,2,0,93.3,395107,276129,0.0
6180,66301,1,255,12.7,2,0,93.3,395122,276181,0.0
6190,66302,1,255,12.7,2,0,93.3,395222,276227,0.0
6200,66303,1,255,12.7,2,0,93.3,395105,276244,0.0
6210,66304,1,255,12.7,2,0,93.3,395221,276237,0.0
6220,66305,1,255,12.7,2,0,93.3,395226,276174,0.0
6230,66306,1,255,12.7,2,0,93.3,395228,276224,0.0
6240,66307,1,255,12.7,2,0,93.3,395278,276255,0.0
6250,66308,1,255,12.7,2,0,93.3,395237,276251,0.0
6260,66309,1,255,12.7,2,0,93.3,395266,276257,0.0
6270,66310,1,255,12.7,2,0,93.3,395316,276286,0.0
6280,66311,1,255,12.7,2,0,93.3,395356,276302,0.0
6290,66312,1,255,12.7,2,0,93.3,395358,276340,0.0
6300,66313,1,255,12.7,2,0,93.3,395389,276315,0.0
6310,66314,1,255,12.7,2,0,93.3,395357,276306,0.0
6320,66315,1,255,12.7,2,0,93.3,395395,276325,0.0
6330,66316,1,255,12.7,2,0,93.3,395381,276290,0.0
6340,66317,1,255,12.7,2,0,93.3,395371,276332,0.0
6350,66318,1,255,12.7,2,0,93.3,395282,276238,0.0
6360,66319,1,255,12.7,2,0,93.3,395203,276178,0.0
6370,66320,1,255,12.7,2,0,93.3,395178,276138,0.0
6380,66321,1,255,12.7,2,0,93.3,395124,276083,0.0
6390,66322,1,255,12.7,2,0,93.3,395145,276094,0.0
6400,66323,1,255,12.7,2,0,93.3,395012,276042,0.0
6410,66324,1,255,12.7,2,0,93.3,395030,276069,0.0
6420,66325,1,255,12.7,2,0,93.3,395044,276046,0.0
6430,66326,1,255,12.7,2,0,93.3,394963,275958,0.0
6440,66327,1,255,12.7,2,0,93.3,394947,275989,0.0
6450,66328,1,255,12.7,2,0,93.3,395010,275991,0.0
6460,66329,1,255,12.7,2,0,93.3,394929,275978,0.0
6470,66330,1,255,12.7,2,0,93.3,394939,275964,0.0
6480,66331,1,255,12.7,2,0,93.3,394886,275970,0.0
6490,66332,1,255,12.7,2,0,93.3,394923,275998,0.0
6500,66333,1,255,12.7,2,0,93.3,394873,275943,0.0
6510,66334,1,255,12.7,2,0,93.3,394923,275961,0.0
6520,66335,1,255,12.7,2,0,93.3,394943,275969,0.0
6530,66336,1,255,12.7,2,0,93.8,395029,275953,0.0
6540,66337,1,255,12.7,2,0,93.8,394975,276049,0.0
6550,66338,1,255,12.7,2,0,93.8,395004,276013,0.0
6560,66339,1,255,12.7,2,0,93.8,395076,276043,0.0
6570,66340,1,255,12.7,2,0,93.8,395090,276082,0.0
6580,66341,1,255,12.7,2,0,93.8,395092,276095,0.0
6590,66342,1,255,12.7,2,0,93.8,395104,276085,0.0
6600,66343,1,255,12.7,2,0,93.8,395129,276072,0.0
6610,66344,1,255,12.7,2,0,93.8,395096,276076,0.0
6620,66345,1,255,12.7,2,0,93.8,395124,276127,0.0
6630,66346,1,255,12.7,2,0,93.8,395156,276139,0.0
6640,66347,1,255,12.7,2,0,93.8,395135,276160,0.0
6650,66348,1,255,12.7,2,0,93.8,395120,276160,0.0
6660,66349,1,255,12.7,2,0,93.8,395172,276162,0.0
6670,66350,1,255,12.7,2,0,93.8,395145,276143,0.0
6680,66351,1,255,12.7,2,0,93.8,395227,276210,0.0
6690,66352,1,255,12.7,2,0,93.8,395239,276213,0.0
6700,66353,1,255,12.7,2,0,93.8,395220,276195,0.0
6710,66354,1,255,12.7,2,0,93.8,395174,276200,0.0
6720,66355,1,255,12.7,2,0,93.8,395194,276188,0.0
6730,66356,1,255,12.7,2,0,93.8,395209,276218,0.0
6740,66357,1,255,12.7,2,0,93.8,395202,276181,0.0
6750,66358,1,255,12.7,2,0,93.8,395240,276162,0.0
6760,66359,1,255,12.7,2,0,93.8,395189,276195,0.0
6770,66360,1,255,12.7,2,0,93.8,395177,276136,0.0
6780,66361,1,255,12.7,2,0,93.8,395235,276195,0.0
6790,66362,1,255,12.7,2,0,93.8,395270,276208,0.0
6800,66363,1,255,12.7,2,0,93.8,395251,276193,0.0
6810,66364,1,255,12.7,2,0,93.8,395233,276212,0.0
6820,66365,1,255,12.7,2,0,93.8,395209,276185,0.0
6830,66366,1,255,12.7,2,0,93.8,395270,276200,0.0
6840,66367,1,255,12.7,2,0,93.8,395240,276212,0.0
6850,66368,1,255,12.7,2,0,93.8,395206,276208,0.0
6860,66369,1,255,12.7,2,0,93.8,395241,276242,0.0
6870,66370,1,255,12.7,2,0,93.8,395268,276239,0.0
6880,66371,1,255,12.7,2,0,93.8,395274,276270,0.0
6890,66372,1,255,12.7,2,0,93.8,395266,276244,0.0
6900,66373,1,255,12.7,2,0,93.8,395286,276259,0.0
6910,66374,1,255,12.7,2,0,93.8,395237,276275,0.0
6920,66375,1,255,12.7,2,0,93.8,395320,276300,0.0
6930,66376,1,255,12.7,2,0,93.8,395371,276260,0.0
6940,66377,1,255,12.7,2,0,93.8,395319,276311,0.0
6950,66378,1,255,12.7,2,0,93.8,395335,276307,0.0
6960,66379,1,255,12.7,2,0,93.8,395396,276327,0.0
6970,66380,1,255,12.7,2,0,93.8,395297,276320,0.0
6980,66381,1,255,12.7,2,0,93.8,395291,276304,0.0
6990,66382,1,255,12.7,2,0,93.8,395363,276314,0.0
7000,66383,1,255,12.7,2,0,93.8,395347,276283,0.0
7010,66384,1,255,12.7,2,0,93.8,395350,276299,0.0
7020,66385,1,255,12.7,2,0,93.8,395278,276279,0.0
7030,66386,1,255,12.7,2,0,93.8,395260,276214,0.0
7040,66387,1,255,12.7,2,0,93.8,395184,276198,0.0
7050,66388,1,255,12.7,2,0,93.8,395168,276124,0.0
7060,66389,1,255,12.7,2,0,93.8,395153,276148,0.0
7070,66390,1,255,12.7,2,0,93.8,395050,276080,0.0
7080,66391,1,255,12.7,2,0,93.8,395083,276089,0.0
7090,66392,1,255,12.7,2,0,93.8,394993,276030,0.0
7100,66393,1,255,12.7,2,0,93.8,394984,276026,0.0
7110,66394,1,255,12.7,2,0,93.8,394893,276008,0.0
7120,66395,1,255,12.7,2,0,93.8,394903,275961,0.0
7130,66396,1,255,12.7,2,0,93.8,394890,275909,0.0
7140,66397,1,255,12.7,2,0,93.8,394760,275850,0.0
7150,66398,1,255,12.7,2,0,93.8,394768,275877,0.0
7160,66399,1,255,12.7,2,0,93.8,394788,275868,0.0
7170,66400,1,255,12.7,2,0,93.8,394713,275861,0.0
7180,66401,1,255,12.7,2,0,93.8,394732,275855,0.0
7190,66402,1,255,12.7,2,0,93.8,394727,275832,0.0
7200,66403,1,255,12.7,2,0,93.8,394761,275821,0.0
7210,66404,1,255,12.7,2,0,93.8,394771,275830,0.0
7220,66405,1,255,12.7,2,0,93.8,394769,275831,0.0
7230,66406,1,255,12.7,2,0,93.8,394711,275794,0.0
7240,66407,1,255,12.7,2,0,93.8,394787,275868,0.0
7250,66408,1,255,12.7,2,0,93.8,394770,275906,0.0
7260,66409,1,255,12.7,2,0,93.8,394903,275875,0.0
7270,66410,1,255,12.7,2,0,93.8,394760,275910,0.0
7280,66411,1,255,12.7,2,0,93.8,394876,275959,0.0
7290,66412,1,255,12.7,2,0,93.8,394841,275923,0.0
7300,66413,1,255,12.7,2,0,93.8,394840,275888,0.0
7310,66414,1,255,12.7,2,0,93.8,394822,275924,0.0
7320,66415,1,255,12.7,2,0,93.8,394932,275978,0.0
7330,66416,1,255,12.7,2,0,93.8,394946,276002,0.0
7340,66417,1,255,12.7,2,0,93.8,394973,275992,0.0
7350,66418,1,255,12.7,2,0,93.8,394907,275963,0.0
7360,66419,1,255,12.7,2,0,93.8,394919,275968,0.0
7370,66420,1,255,12.7,2,0,93.8,394964,275987,0.0
7380,66421,1,255,12.7,2,0,93.8,394980,276006,0.0
7390,66422,1,255,12.7,2,0,93.8,394875,275975,0.0
7400,66423,1,255,12.7,2,0,93.8,394925,276000,0.0
7410,66424,1,255,12.7,2,0,93.8,394918,275965,0.0
7420,66425,1,255,12.7,2,0,93.8,394920,275997,0.0
7430,66426,1,255,12.7,2,0,93.8,394869,275942,0.0
7440,66427,1,255,12.7,2,0,93.8,394876,275968,0.0
7450,66428,1,255,12.7,2,0,93.8,394927,275952,0.0
7460,66429,1,255,12.7,2,0,93.8,394904,275974,0.0
7470,66430,1,255,12.7,2,0,93.8,394942,276001,0.0
7480,66431,1,255,12.7,2,0,93.8,394929,275943,0.0
7490,66432,1,255,12.7,2,0,93.8,394888,275970,0.0
7500,66433,1,255,12.7,2,0,93.8,394930,275985,0.0
7510,66434,1,255,12.7,2,0,93.8,394981,276031,0.0
7520,66435,1,255,12.7,2,0,93.8,394977,276007,0.0
7530,66436,1,255,12.7,2,0,93.8,394926,276009,0.0
7540,66437,1,255,12.7,2,0,93.8,395015,276019,0.0
7550,66438,1,255,12.7,2,0,93.8,394996,276022,0.0
7560,66439,1,255,12.7,2,0,93.8,394997,276039,0.0
7570,66440,1,255,12.7,2,0,93.8,395029,276042,0.0
7580,66441,1,255,12.7,2,0,93.8,395040,276099,0.0
7590,66442,1,255,12.7,2,0,93.8,395068,276124,0.0
7600,66443,1,255,12.7,2,0,93.8,395069,276054,0.0
7610,66444,1,255,12.7,2,0,93.8,395119,276065,0.0
7620,66445,1,255,12.7,2,0,93.8,395093,276129,0.0
7630,66446,1,255,12.7,2,0,93.8,395115,276131,0.0
7640,66447,1,255,12.7,2,0,93.8,395162,276177,0.0
7650,66448,1,255,12.7,2,0,93.8,395129,276166,0.0
7660,66449,1,255,12.7,2,0,93.8,395176,276154,0.0
7670,66450,1,255,12.7,2,0,93.8,395168,276164,0.0
7680,66451,1,255,12.7,2,0,93.8,395225,276176,0.0
7690,66452,1,255,12.7,2,0,93.8,395117,276155,0.0
7700,66453,1,255,12.7,2,0,93.8,395158,276151,0.0
7710,66454,1,255,12.7,2,0,93.8,395167,276184,0.0
7720,66455,1,255,12.7,2,0,93.8,395135,276154,0.0
7730,66456,1,255,12.7,2,0,93.8,395076,276105,0.0
7740,66457,1,255,12.7,2,0,93.8,395058,276052,0.0
7750,66458,1,255,12.7,2,0,93.8,394994,276000,0.0
7760,66459,1,255,12.7,2,0,93.8,394936,276019,0.0
7770,66460,1,255,12.7,2,0,93.8,394927,275962,0.0
7780,66461,1,255,12.7,2,0,93.8,394902,275941,0.0
7790,66462,1,255,12.7,2,0,93.8,394814,275895,0.0
7800,66463,1,255,12.7,2,0,93.8,394767,275866,0.0
7810,66464,1,255,12.7,2,0,93.8,394750,275822,0.0
7820,66465,1,255,12.7,2,0,93.8,394761,275781,0.0
7830,66466,1,255,12.7,2,0,93.8,394685,275771,0.0
7840,66467,1,255,12.7,2,0,93.8,394703,275823,0.0
7850,66468,1,255,12.7,2,0,93.8,394634,275813,0.0
7860,66469,1,255,12.7,2,0,93.8,394622,275739,0.0
7870,66470,1,255,12.7,2,0,93.8,394587,275725,0.0
7880,66471,1,255,12.7,2,0,93.8,394634,275744,0.0
7890,66472,1,255,12.7,2,0,93.8,394579,275742,0.0
7900,66473,1,255,12.7,2,0,93.8,394653,275775,0.0
7910,66474,1,255,12.7,2,0,93.8,394631,275788,0.0
7920,66475,1,255,12.7,2,0,93.8,394615,275774,0.0
7930,66476,1,255,12.7,2,0,93.8,394704,275806,0.0
7940,66477,1,255,12.7,2,0,93.8,394651,275779,0.0
7950,66478,1,255,12.7,2,0,93.8,394700,275809,0.0
7960,66479,1,255,12.7,2,0,93.8,394780,275852,0.0
7970,66480,1,255,12.7,2,0,93.8,394786,275839,0.0
7980,66481,1,255,12.7,2,0,93.8,394738,275835,0.0
7990,66482,1,255,12.7,2,0,93.8,394777,275861,0.0
8000,66483,1,255,12.7,2,0,93.8,394818,275897,0.0
8010,66484,1,255,12.7,2,0,93.8,394776,275869,0.0
8020,66485,1,255,12.7,2,0,93.8,394813,275895,0.0
8030,66486,1,255,12.7,2,0,93.8,394451,275928,0.0
8040,66487,1,255,12.7,2,0,93.8,394859,275957,0.0
8050,66488,1,255,12.7,2,0,93.8,394872,275955,0.0
8060,66489,1,255,12.7,2,0,93.8,394881,275985,0.0
8070,66490,1,255,12.7,2,0,93.8,394947,276000,0.0
8080,66491,1,255,12.7,2,0,93.8,394926,276020,0.0
8090,66492,1,255,12.7,2,0,93.8,394974,276016,0.0
8100,66493,1,255,12.7,2,0,93.8,394930,276034,0.0
8110,66494,1,255,12.7,2,0,93.8,394921,275991,0.0
8120,66495,1,255,12.7,2,0,93.8,394900,276027,0.0
8130,66496,1,255,12.7,2,0,93.8,394749,275960,0.0
8140,66497,1,255,12.7,2,0,93.8,394960,276032,0.0
8150,66498,1,255,12.7,2,0,93.8,394963,276037,0.0
8160,66499,1,255,12.7,2,0,93.8,394990,276045,0.0
8170,66500,1,255,12.7,2,0,93.8,395031,276033,0.0
8180,66501,1,255,12.7,2,0,93.8,395056,276061,0.0
8190,66502,1,255,12.7,2,0,93.8,395104,276135,0.0
8200,66503,1,255,12.7,2,0,93.8,395107,276142,0.0
8210,66504,1,255,12.7,2,0,93.8,395150,276164,0.0
8220,66505,1,255,12.7,2,0,93.8,395111,276127,0.0
8230,66506,1,255,12.7,2,0,93.8,395066,276084,0.0
8240,66507,1,255,12.7,2,0,93.8,395053,276130,0.0
8250,66508,1,255,12.7,2,0,93.8,395169,276173,0.0
8260,66509,1,255,12.7,2,0,93.8,395189,276196,0.0
8270,66510,1,255,12.7,2,0,93.8,395240,276183,0.0
8280,66511,1,255,12.7,2,0,93.8,395207,276193,0.0
8290,66512,1,255,12.7,2,0,93.8,395265,276257,0.0
8300,66513,1,255,12.7,2,0,93.8,395191,276198,0.0
8310,66514,1,255,12.7,2,0,93.8,395237,276183,0.0
8320,66515,1,255,12.7,2,0,93.8,395267,276234,0.0
8330,66516,1,255,12.7,2,0,93.8,395229,276262,0.0
8340,66517,1,255,12.7,2,0,93.8,395256,276245,0.0
8350,66518,1,255,12.7,2,0,93.8,395215,276267,0.0
8360,66519,1,255,12.7,2,0,93.8,395270,276270,0.0
8370,66520,1,255,12.7,2,0,93.8,395263,276278,0.0
8380,66521,1,255,12.7,2,0,93.8,395272,276268,0.0
8390,66522,1,255,12.7,2,0,93.8,395257,276223,0.0
8400,66523,1,255,12.7,2,0,93.8,395289,276261,0.0
8410,66524,1,255,12.7,2,0,93.8,395290,276303,0.0
8420,66525,1,255,12.7,2,0,93.8,395198,276218,0.0
8430,66526,1,255,12.7,2,0,93.8,395143,276167,0.0
8440,66527,1,255,12.7,2,0,93.8,395087,276113,0.0
8450,66528,1,255,12.7,2,0,93.8,395020,276073,0.0
8460,66529,1,255,12.7,2,0,93.8,395030,276056,0.0
8470,66530,1,255,12.7,2,0,93.8,394989,276068,0.0
8480,66531,1,255,12.7,2,0,93.8,394978,276010,0.0
8490,66532,1,255,12.7,2,0,93.8,394957,276007,0.0
8500,66533,1,255,12.7,2,0,93.8,394912,275934,0.0
8510,66534,1,255,12.7,2,0,93.8,394879,275967,0.0
8520,66535,1,255,12.7,2,0,93.8,394808,275868,0.0
8530,66536,1,255,12.7,2,0,93.8,394803,275887,0.0
8540,66537,1,255,12.7,2,0,93.8,394691,275854,0.0
8550,66538,1,255,12.7,2,0,93.8,394704,275827,0.0
8560,66539,1,255,12.7,2,0,93.8,394623,275843,0.0
8570,66540,1,255,12.7,2,0,93.8,394700,275772,0.0
8580,66541,1,255,12.7,2,0,93.8,394682,275781,0.0
8590,66542,1,255,12.7,2,0,93.8,394594,275812,0.0
8600,66543,1,255,12.7,2,0,93.8,394672,275806,0.0
8610,66544,1,255,12.7,2,0,93.8,394663,275788,0.0
8620,66545,1,255,12.7,2,0,93.8,394671,275792,0.0
8630,66546,1,255,12.7,2,0,93.8,394730,275875,0.0
8640,66547,1,255,12.7,2,0,93.8,394726,275817,0.0
8650,66548,1,255,12.7,2,0,93.8,394727,275864,0.0
8660,66549,1,255,12.7,2,0,93.8,394753,275876,0.0
8670,66550,1,255,12.7,2,0,93.8,394818,275909,0.0
8680,66551,1,255,12.7,2,0,93.8,394784,275920,0.0
8690,66552,1,255,12.7,2,0,93.8,394751,275872,0.0
8700,66553,1,255,12.7,2,0,93.8,394794,275848,0.0
8710,66554,1,255,12.7,2,0,93.8,394770,275904,0.0
8720,66555,1,255,12.7,2,0,93.8,394873,275948,0.0
8730,66556,1,255,12.7,2,0,93.8,394888,275956,0.0
8740,66557,1,255,12.7,2,0,93.8,394842,275942,0.0
8750,66558,1,255,12.7,2,0,93.8,394856,275974,0.0
8760,66559,1,255,12.7,2,0,93.8,394876,275967,0.0
8770,66560,1,255,12.7,2,0,93.8,394928,275951,0.0
8780,66561,1,255,12.7,2,0,93.8,394901,275976,0.0
8790,66562,1,255,12.7,2,0,93.8,394876,275927,0.0
8800,66563,1,255,12.7,2,0,93.8,394769,275886,0.0
8810,66564,1,255,12.7,2,0,93.8,394796,275924,0.0
8820,66565,1,255,12.7,2,0,93.8,394801,275896,0.0
8830,66566,1,255,12.7,2,0,93.8,394831,275910,0.0
8840,66567,1,255,12.7,2,0,93.8,394802,275918,0.0
8850,66568,1,255,12.7,2,0,93.8,394835,275928,0.0
8860,66569,1,255,12.7,2,0,93.8,394846,275925,0.0
8870,66570,1,255,12.7,2,0,93.8,394836,275950,0.0
8880,66571,1,255,12.7,2,0,93.8,394910,275956,0.0
8890,66572,1,255,12.7,2,0,93.8,394896,275958,0.0
8900,66573,1,255,12.7,2,0,93.8,394874,275939,0.0
8910,66574,1,255,12.7,2,0,93.8,394890,275985,0.0
8920,66575,1,255,12.7,2,0,93.8,394813,275980,0.0
8930,66576,1,255,12.7,2,0,93.8,394881,276064,0.0
8940,66577,1,255,12.7,2,0,93.8,394911,275975,0.0
8950,66578,1,255,12.7,2,0,93.8,394970,275980,0.0
8960,66579,1,255,12.7,2,0,93.8,394931,275966,0.0
8970,66580,1,255,12.7,2,0,93.8,394956,276026,0.0
8980,66581,1,255,12.7,2,0,93.8,394923,275996,0.0
8990,66582,1,255,12.7,2,0,93.8,394973,276063,0.0
9000,66583,1,255,12.7,2,0,93.8,394971,276051,0.0
9010,66584,1,255,12.7,2,0,93.8,395062,276061,0.0
9020,66585,1,255,12.7,2,0,93.8,395082,276081,0.0
9030,66586,1,255,12.7,2,0,93.8,395033,275948,0.0
9040,66587,1,255,12.7,2,0,93.8,395101,276102,0.0
9050,66588,1,255,12.7,2,0,93.8,395154,276105,0.0
9060,66589,1,255,12.7,2,0,93.8,395116,276145,0.0
9070,66590,1,255,12.7,2,0,93.8,395162,276158,0.0
9080,66591,1,255,12.7,2,0,93.8,395167,276156,0.0
9090,66592,1,255,12.7,2,0,93.8,395170,276193,0.0
9100,66593,1,255,12.7,2,0,93.8,395112,276110,0.0
9110,66594,1,255,12.7,2,0,93.8,395081,276137,0.0
9120,66595,1,255,12.7,2,0,93.8,395101,276090,0.0
9130,66596,1,255,12.7,2,0,93.8,395047,275895,0.0
9140,66597,1,255,12.7,2,0,93.8,395018,276021,0.0
9150,66598,1,255,12.7,2,0,93.8,394927,276005,0.0
9160,66599,1,255,12.7,2,0,93.8,394918,275984,0.0
9170,66600,1,255,12.7,2,0,93.8,394853,275947,0.0
9180,66601,1,255,12.7,2,0,93.8,394849,275951,0.0
9190,66602,1,255,12.7,2,0,93.8,394820,275895,0.0
9200,66603,1,255,12.7,2,0,93.8,394781,275871,0.0
9210,66604,1,255,12.7,2,0,93.8,394728,275847,0.0
9220,66605,1,255,12.7,2,0,93.8,394760,275835,0.0
9230,66606,1,255,12.7,2,0,93.8,394715,275860,0.0
9240,66607,1,255,12.7,2,0,93.8,394670,275788,0.0
9250,66608,1,255,12.7,2,0,93.8,394684,275829,0.0
9260,66609,1,255,12.7,2,0,93.8,394651,275772,0.0
9270,66610,1,255,12.7,2,0,93.8,394647,275814,0.0
9280,66611,1,255,12.7,2,0,93.8,394642,275724,0.0
9290,66612,1,255,12.7,2,0,93.8,394619,275779,0.0
9300,66613,1,255,12.7,2,0,93.8,394629,275787,0.0
9310,66614,1,255,12.7,2,0,93.8,394693,275843,0.0
9320,66615,1,255,12.7,2,0,93.8,394756,275833,0.0
9330,66616,1,255,12.7,2,0,93.8,394750,275835,0.0
9340,66617,1,255,12.7,2,0,93.8,394822,275866,0.0
9350,66618,1,255,12.7,2,0,93.8,394819,275864,0.0
9360,66619,1,255,12.7,2,0,93.8,394838,275913,0.0
9370,66620,1,255,12.7,2,0,93.8,394818,275929,0.0
9380,66621,1,255,12.7,2,0,93.8,394888,275994,0.0
9390,66622,1,255,12.7,2,0,93.8,395005,275983,0.0
9400,66623,1,255,12.7,2,0,93.8,394949,275983,0.0
9410,66624,1,255,12.7,2,0,93.8,394983,275967,0.0
9420,66625,1,255,12.7,2,0,93.8,394990,276005,0.0
9430,66626,1,255,12.7,2,0,93.8,394979,276016,0.0
9440,66627,1,255,12.7,2,0,93.8,395004,276064,0.0
9450,66628,1,255,12.7,2,0,93.8,394997,276034,0.0
9460,66629,1,255,12.7,2,0,93.8,395063,276066,0.0
9470,66630,1,255,12.7,2,0,93.8,395023,276070,0.0
9480,66631,1,255,12.7,2,0,93.8,395055,276073,0.0
9490,66632,1,255,12.7,2,0,93.8,395041,276098,0.0
9500,66633,1,255,12.7,2,0,93.8,395090,276105,0.0
9510,66634,1,255,12.7,2,0,93.8,395066,276080,0.0
9520,66635,1,255,12.7,2,0,93.8,395093,276120,0.0
9530,66636,1,255,12.7,2,0,93.8,395094,276098,0.0
9540,66637,1,255,12.7,2,0,93.8,395104,276101,0.0
9550,66638,1,255,12.7,2,0,93.8,395153,276111,0.0
9560,66639,1,255,12.7,2,0,93.8,395046,276082,0.0
9570,66640,1,255,12.7,2,0,93.8,395079,276098,0.0
9580,66641,1,255,12.7,2,0,93.8,395193,276127,0.0
9590,66642,1,255,12.7,2,0,93.8,395256,276163,0.0
9600,66643,1,255,12.7,2,0,93.8,395250,276210,0.0
9610,66644,1,255,12.7,2,0,93.8,395256,276172,0.0
9620,66645,1,255,12.7,2,0,93.8,395235,276162,0.0
9630,66646,1,255,12.7,2,0,93.8,395218,276192,0.0
9640,66647,1,255,12.7,2,0,93.8,395252,276214,0.0
9650,66648,1,255,12.7,2,0,93.8,395415,276265,0.0
9660,66649,1,255,12.7,2,0,93.8,395344,276259,0.0
9670,66650,1,255,12.7,2,0,93.8,395414,276224,0.0
9680,66651,1,255,12.7,2,0,93.8,395290,276215,0.0
9690,66652,1,255,12.7,2,0,93.8,395394,276277,0.0
9700,66653,1,255,12.7,2,0,93.8,395365,276242,0.0
9710,66654,1,255,12.7,2,0,93.8,395373,276250,0.0
9720,66655,1,255,12.7,2,0,93.8,395436,276280,0.0
9730,66656,1,255,12.7,2,0,93.8,395431,276255,0.0
9740,66657,1,255,12.7,2,0,93.8,395477,276313,0.0
9750,66658,1,255,12.7,2,0,93.8,395436,276289,0.0
9760,66659,1,255,12.7,2,0,93.8,395405,276264,0.0
9770,66660,1,255,12.7,2,0,93.8,395456,276297,0.0
9780,66661,1,255,12.7,2,0,93.8,395452,276341,0.0
9790,66662,1,255,12.7,2,0,93.8,395384,276283,0.0
9800,66663,1,255,12.7,2,0,93.8,395365,276257,0.0
9810,66664,1,255,12.7,2,0,93.8,395324,276219,0.0
9820,66665,1,255,12.7,2,0,93.8,395257,276149,0.0
9830,66666,1,255,12.7,2,0,93.8,395239,276167,0.0
9840,66667,1,255,12.7,2,0,93.6,395154,276116,0.0
9850,66668,1,255,12.7,2,0,93.6,395107,276061,0.0
9860,66669,1,255,12.7,2,0,93.6,395148,276024,0.0
9870,66670,1,255,12.7,2,0,93.6,395067,275980,0.0
9880,66671,1,255,12.7,2,0,93.6,395003,275940,0.0
9890,66672,1,255,12.7,2,0,93.6,395017,275994,0.0
9900,66673,1,255,12.7,2,0,93.6,394967,275907,0.0
9910,66674,1,255,12.7,2,0,93.6,394944,275922,0.0
9920,66675,1,255,12.7,2,0,93.6,394944,275947,0.0
9930,66676,1,255,12.7,2,0,93.6,394949,275878,0.0
9940,66677,1,255,12.7,2,0,93.6,394835,275872,0.0
9950,66678,1,255,12.7,2,0,93.6,394861,275854,0.0
9960,66679,1,255,12.7,2,0,93.6,394844,275851,0.0
9970,66680,1,255,12.7,2,0,93.6,394894,275859,0.0
9980,66681,1,255,12.7,2,0,93.6,394847,275815,0.0
9990,66682,1,255,12.7,2,0,93.6,394862,275840,0.0
10000,66683,1,255,12.7,2,0,93.6,394889,275847,0.0
10010,66684,1,255,12.7,2,0,93.6,394886,275871,0.0
10020,66685,1,255,12.7,2,0,93.6,394886,275899,0.0
10030,66686,1,255,12.7,2,0,93.6,394895,275889,0.0
10040,66687,1,255,12.7,2,0,93.6,394935,275882,0.0
10050,66688,1,255,12.7,2,0,93.6,394922,275848,0.0
10060,66689,1,255,12.7,2,0,93.6,394928,275892,0.0
10070,66690,1,255,12.7,2,0,93.6,394910,275884,0.0
10080,66691,1,255,12.7,2,0,93.6,394923,275874,0.0
10090,66692,1,255,12.7,2,0,93.6,394955,275917,0.0
10100,66693,1,255,12.7,2,0,93.6,394982,275926,0.0
10110,66694,1,255,12.7,2,0,93.6,394987,275930,0.0
10120,66695,1,255,12.7,2,0,93.6,395006,275959,0.0
10130,66696,1,255,12.7,2,0,93.6,395007,275963,0.0
10140,66697,1,255,12.7,2,0,93.6,395040,275965,0.0
10150,66698,1,255,12.7,2,0,93.6,395009,275986,0.0
10160,66699,1,255,12.7,2,0,93.6,395009,275956,0.0
10170,66700,1,255,12.7,2,0,93.6,395053,275957,0.0
10180,66701,1,255,12.7,2,0,93.6,394997,275976,0.0
10190,66702,1,255,12.7,2,0,93.6,395008,275987,0.0
10200,66703,1,255,12.7,2,0,93.6,394956,276001,0.0
10210,66704,1,255,12.7,2,0,93.6,395055,275972,0.0
10220,66705,1,255,12.7,2,0,93.6,395002,275975,0.0
10230,66706,1,255,12.7,2,0,93.6,395045,275994,0.0
10240,66707,1,255,12.7,2,0,93.6,395028,275971,0.0
10250,66708,1,255,12.7,2,0,93.6,395067,276000,0.0
10260,66709,1,255,12.7,2,0,93.6,395032,276008,0.0
10270,66710,1,255,12.7,2,0,93.6,394970,275944,0.0
10280,66711,1,255,12.7,2,0,93.6,395043,276016,0.0
10290,66712,1,255,12.7,2,0,93.6,395043,276027,0.0
10300,66713,1,255,12.7,2,0,93.6,395037,275968,0.0
10310,66714,1,255,12.7,2,0,93.6,395045,275996,0.0
10320,66715,1,255,12.7,2,0,93.6,395041,276002,0.0
10330,66716,1,255,12.7,2,0,93.6,395013,275991,0.0
10340,66717,1,255,12.7,2,0,93.6,395076,276007,0.0
10350,66718,1,255,12.7,2,0,93.6,395073,276029,0.0
10360,66719,1,255,12.7,2,0,93.6,395021,276018,0.0
10370,66720,1,255,12.7,2,0,93.6,395120,276061,0.0
10380,66721,1,255,12.7,2,0,93.6,395131,276068,0.0
10390,66722,1,255,12.7,2,0,93.6,395162,276048,0.0
10400,66723,1,255,12.7,2,0,93.6,395167,276124,0.0
10410,66724,1,255,12.7,2,0,93.6,395108,276083,0.0
10420,66725,1,255,12.7,2,0,93.6,395141,276087,0.0
10430,66726,1,255,12.7,2,0,93.6,395179,276150,0.0
10440,66727,1,255,12.7,2,0,93.6,395211,276104,0.0
10450,66728,1,255,12.7,2,0,93.6,395162,276076,0.0
10460,66729,1,255,12.7,2,0,93.6,395231,276114,0.0
10470,66730,1,255,12.7,2,0,93.6,395164,276071,0.0
10480,66731,1,255,12.7,2,0,93.6,395117,276045,0.0
10490,66732,1,255,12.7,2,0,93.6,395061,276080,0.0
10500,66733,1,255,12.7,2,0,93.6,395081,275991,0.0
10510,66734,1,255,12.7,2,0,93.6,394938,275951,0.0
10520,66735,1,255,12.7,2,0,93.6,394913,275911,0.0
10530,66736,1,255,12.7,2,0,93.6,394822,275848,0.0
10540,66737,1,255,12.7,2,0,93.6,394834,275859,0.0
10550,66738,1,255,12.7,2,0,93.6,394837,275819,0.0
10560,66739,1,255,12.7,2,0,93.6,394757,275778,0.0
10570,66740,1,255,12.7,2,0,93.6,394758,275757,0.0
10580,66741,1,255,12.7,2,0,93.6,394773,275752,0.0
10590,66742,1,255,12.7,2,0,93.6,394657,275797,0.0
10600,66743,1,255,12.7,2,0,93.6,394670,275716,0.0
10610,66744,1,255,12.7,2,0,93.6,394595,275712,0.0
10620,66745,1,255,12.7,2,0,93.6,394729,275732,0.0
10630,66746,1,255,12.7,2,0,93.6,394715,275761,0.0
10640,66747,1,255,12.7,2,0,93.6,394692,275724,0.0
10650,66748,1,255,12.7,2,0,93.6,394665,275714,0.0
10660,66749,1,255,12.7,2,0,93.6,394662,275728,0.0
10670,66750,1,255,12.7,2,0,93.6,394708,275768,0.0
10680,66751,1,255,12.7,2,0,93.6,394670,275717,0.0
10690,66752,1,255,12.7,2,0,93.6,394744,275744,0.0
10700,66753,1,255,12.7,2,0,93.6,394667,275762,0.0
10710,66754,1,255,12.7,2,0,93.6,394726,275725,0.0
10720,66755,1,255,12.7,2,0,93.6,394822,275831,0.0
10730,66756,1,255,12.7,2,0,93.6,394845,275884,0.0
10740,66757,1,255,12.7,2,0,93.6,394795,275857,0.0
10750,66758,1,255,12.7,2,0,93.6,394838,275851,0.0
10760,66759,1,255,12.7,2,0,93.6,394914,275868,0.0
10770,66760,1,255,12.7,2,0,93.6,394874,275838,0.0
10780,66761,1,255,12.7,2,0,93.6,394869,275857,0.0
10790,66762,1,255,12.7,2,0,93.6,394896,275875,0.0
10800,66763,1,255,12.7,2,0,93.6,394865,275906,0.0
10810,66764,1,255,12.7,2,0,93.6,394994,275934,0.0
10820,66765,1,255,12.7,2,0,93.6,394894,275968,0.0
10830,66766,1,255,12.7,2,0,93.6,394922,275940,0.0
10840,66767,1,255,12.7,2,0,93.6,394947,275918,0.0
10850,66768,1,255,12.7,2,0,93.6,394963,275957,0.0
10860,66769,1,255,12.7,2,0,93.6,394978,275929,0.0
10870,66770,1,255,12.7,2,0,93.6,394939,276007,0.0
10880,66771,1,255,12.7,2,0,93.6,394930,275987,0.0
10890,66772,1,255,12.7,2,0,93.6,394971,275960,0.0
10900,66773,1,255,12.7,2,0,93.6,394989,275966,0.0
10910,66774,1,255,12.7,2,0,93.6,395006,275982,0.0
10920,66775,1,255,12.7,2,0,93.6,394977,275968,0.0
10930,66776,1,255,12.7,2,0,93.6,395017,275975,0.0
10940,66777,1,255,12.7,2,0,93.6,394937,275922,0.0
10950,66778,1,255,12.7,2,0,93.6,395003,275952,0.0
10960,66779,1,255,12.7,2,0,93.6,395028,275935,0.0
10970,66780,1,255,12.7,2,0,93.6,395020,275989,0.0
10980,66781,1,255,12.7,2,0,93.6,394996,275947,0.0
10990,66782,1,255,12.7,2,0,93.6,395029,275985,0.0
11000,66783,1,255,12.7,2,0,93.6,395034,276009,0.0
11010,66784,1,255,12.7,2,0,93.6,395051,276026,0.0
11020,66785,1,255,12.7,2,0,93.6,395025,275994,0.0
11030,66786,1,255,12.7,2,0,93.6,395103,276025,0.0
11040,66787,1,255,12.7,2,0,93.6,395082,275995,0.0
11050,66788,1,255,12.7,2,0,93.6,395163,276043,0.0
11060,66789,1,255,12.7,2,0,93.6,395157,276090,0.0
11070,66790,1,255,12.7,2,0,93.6,395140,275991,0.0
11080,66791,1,255,12.7,2,0,93.6,395060,276038,0.0
11090,66792,1,255,12.7,2,0,93.6,395177,276111,0.0
11100,66793,1,255,12.7,2,0,93.6,395094,276077,0.0
11110,66794,1,255,12.7,2,0,93.6,395083,276046,0.0
11120,66795,1,255,12.7,2,0,93.6,395110,276091,0.0
11130,66796,1,255,12.7,2,0,93.6,395166,276132,0.0
11140,66797,1,255,12.7,2,0,93.6,395187,276133,0.0
11150,66798,1,255,12.7,2,0,93.6,395201,276072,0.0
11160,66799,1,255,12.7,2,0,93.6,395096,276049,0.0
11170,66800,1,255,12.7,2,0,93.6,395052,275992,0.0
11180,66801,1,255,12.7,2,0,93.6,395000,275982,0.0
11190,66802,1,255,12.7,2,0,93.6,395004,275998,0.0
11200,66803,1,255,12.7,2,0,93.6,394965,275913,0.0
11210,66804,1,255,12.7,2,0,93.6,394922,275893,0.0
11220,66805,1,255,12.7,2,0,93.6,394840,275861,0.0
11230,66806,1,255,12.7,2,0,93.6,394841,275823,0.0
11240,66807,1,255,12.7,2,0,93.6,394782,275804,0.0
11250,66808,1,255,12.7,2,0,93.6,394765,275777,0.0
11260,66809,1,255,12.7,2,0,93.6,394703,275706,0.0
11270,66810,1,255,12.7,2,0,93.6,394655,275673,0.0
11280,66811,1,255,12.7,2,0,93.6,394644,275680,0.0
11290,66812,1,255,12.7,2,0,93.6,394596,275659,0.0
11300,66813,1,255,12.7,2,0,93.6,394592,275679,0.0
11310,66814,1,255,12.7,2,0,93.6,394586,275662,0.0
11320,66815,1,255,12.7,2,0,93.6,394545,275601,0.0
11330,66816,1,255,12.7,2,0,93.6,394566,275651,0.0
11340,66817,1,255,12.7,2,0,93.6,394544,275592,0.0
11350,66818,1,255,12.7,2,0,93.6,394494,275634,0.0
11360,66819,1,255,12.7,2,0,93.6,394548,275618,0.0
11370,66820,1,255,12.7,2,0,93.6,394526,275597,0.0
11380,66821,1,255,12.7,2,0,93.6,394508,275614,0.0
11390,66822,1,255,12.7,2,0,93.6,394520,275658,0.0
11400,66823,1,255,12.7,2,0,93.6,394540,275632,0.0
11410,66824,1,255,12.7,2,0,93.6,394592,275648,0.0
11420,66825,1,255,12.7,2,0,93.6,394502,275693,0.0
11430,66826,1,255,12.7,2,0,93.6,394641,275704,0.0
11440,66827,1,255,12.7,2,0,93.6,394593,275682,0.0
11450,66828,1,255,12.7,2,0,93.6,394704,275673,0.0
11460,66829,1,255,12.7,2,0,93.6,394556,275664,0.0
11470,66830,1,255,12.7,2,0,93.6,394673,275699,0.0
11480,66831,1,255,12.7,2,0,93.6,394733,275795,0.0
11490,66832,1,255,12.7,2,0,93.6,394704,275748,0.0
11500,66833,1,255,12.7,2,0,93.6,394684,275776,0.0
11510,66834,1,255,12.7,2,0,93.6,394725,275814,0.0
11520,66835,1,255,12.7,2,0,93.6,394746,275793,0.0
11530,66836,1,255,12.7,2,0,93.6,394672,275781,0.0
11540,66837,1,255,12.7,2,0,93.6,394721,275784,0.0
11550,66838,1,255,12.7,2,0,93.6,394707,275740,0.0
11560,66839,1,255,12.7,2,0,93.6,394730,275742,0.0
11570,66840,1,255,12.7,2,0,93.6,394712,275763,0.0
11580,66841,1,255,12.7,2,0,93.6,394710,275753,0.0
11590,66842,1,255,12.7,2,0,93.6,394707,275756,0.0
11600,66843,1,255,12.7,2,0,93.6,394823,275811,0.0
11610,66844,1,255,12.7,2,0,93.6,394738,275794,0.0
11620,66845,1,255,12.7,2,0,93.6,394787,275801,0.0
11630,66846,1,255,12.7,2,0,93.6,394813,275824,0.0
11640,66847,1,255,12.7,2,0,93.6,394795,275885,0.0
11650,66848,1,255,12.7,2,0,93.6,394785,275837,0.0
11660,66849,1,255,12.7,2,0,93.6,394794,275852,0.0
11670,66850,1,255,12.7,2,0,93.6,394863,275854,0.0
11680,66851,1,255,12.7,2,0,93.6,394868,275891,0.0
11690,66852,1,255,12.7,2,0,93.6,394886,275892,0.0
11700,66853,1,255,12.7,2,0,93.6,394883,275876,0.0
11710,66854,1,255,12.7,2,0,93.6,394901,275911,0.0
11720,66855,1,255,12.7,2,0,93.6,394904,275934,0.0
11730,66856,1,255,12.7,2,0,93.6,394954,275933,0.0
11740,66857,1,255,12.7,2,0,93.6,394977,275933,0.0
11750,66858,1,255,12.7,2,0,93.6,394991,275950,0.0
11760,66859,1,255,12.7,2,0,93.6,395022,276003,0.0
11770,66860,1,255,12.7,2,0,93.6,395071,276070,0.0
11780,66861,1,255,12.7,2,0,93.6,395020,276021,0.0
11790,66862,1,255,12.7,2,0,93.6,395091,276063,0.0
11800,66863,1,255,12.7,2,0,93.6,395109,276059,0.0
11810,66864,1,255,12.7,2,0,93.6,395133,276059,0.0
11820,66865,1,255,12.7,2,0,93.6,395133,276025,0.0
11830,66866,1,255,12.7,2,0,93.6,395095,276051,0.0
11840,66867,1,255,12.7,2,0,93.6,395117,276058,0.0
11850,66868,1,255,12.7,2,0,93.6,395062,276011,0.0
11860,66869,1,255,12.7,2,0,93.6,395006,276037,0.0
11870,66870,1,255,12.7,2,0,93.6,395024,275996,0.0
11880,66871,1,255,12.7,2,0,93.6,395034,275975,0.0
11890,66872,1,255,12.7,2,0,93.6,394922,275889,0.0
11900,66873,1,255,12.7,2,0,93.6,394859,275851,0.0
11910,66874,1,255,12.7,2,0,93.6,394959,275918,0.0
11920,66875,1,255,12.7,2,0,93.6,394892,275885,0.0
11930,66876,1,255,12.7,2,0,93.6,394869,275900,0.0
11940,66877,1,255,12.7,2,0,93.6,394853,275835,0.0
11950,66878,1,255,12.7,2,0,93.6,394822,275851,0.0
11960,66879,1,255,12.7,2,0,93.6,394765,275818,0.0
11970,66880,1,255,12.7,2,0,93.6,394769,275828,0.0
11980,66881,1,255,12.7,2,0,93.6,394751,275787,0.0
11990,66882,1,255,12.7,2,0,93.6,394727,275795,0.0
12000,66883,1,255,12.7,2,0,93.6,394765,275798,0.0
12010,66884,1,255,12.7,2,0,93.6,394803,275790,0.0
12020,66885,1,255,12.7,2,0,93.6,394810,275790,0.0
12030,66886,1,255,12.7,2,0,93.6,394804,275772,0.0
12040,66887,1,255,12.7,2,0,93.6,394781,275834,0.0
12050,66888,1,255,12.7,2,0,93.6,394825,275854,0.0
12060,66889,1,255,12.7,2,0,93.6,394900,275896,0.0
12070,66890,1,255,12.7,2,0,93.6,394880,275917,0.0
12080,66891,1,255,12.7,2,0,93.6,394980,275894,0.0
12090,66892,1,255,12.7,2,0,93.6,394875,275856,0.0
12100,66893,1,255,12.7,2,0,93.6,394898,275938,0.0
12110,66894,1,255,12.7,2,0,93.6,394917,275928,0.0
12120,66895,1,255,12.7,2,0,93.6,394945,275946,0.0
12130,66896,1,255,12.7,2,0,93.6,395002,275979,0.0
12140,66897,1,255,12.7,2,0,93.6,395005,275954,0.0
12150,66898,1,255,12.7,2,0,93.6,395105,276047,0.0
12160,66899,1,255,12.7,2,0,93.6,395080,276069,0.0
12170,66900,1,255,12.7,2,0,93.6,395103,276078,0.0
12180,66901,1,255,12.7,2,0,93.6,395138,276094,0.0
12190,66902,1,255,12.7,2,0,93.6,395159,276113,0.0
12200,66903,1,255,12.7,2,0,93.6,395109,276084,0.0
12210,66904,1,255,12.7,2,0,93.6,395117,276076,0.0
12220,66905,1,255,12.7,2,0,93.6,395127,276134,0.0
12230,66906,1,255,12.7,2,0,93.6,395208,276135,0.0
12240,66907,1,255,12.7,2,0,93.6,395203,276186,0.0
12250,66908,1,255,12.7,2,0,93.6,395226,276122,0.0
12260,66909,1,255,12.7,2,0,93.6,395302,276222,0.0
12270,66910,1,255,12.7,2,0,93.6,395317,276162,0.0
12280,66911,1,255,12.7,2,0,93.6,395369,276204,0.0
12290,66912,1,255,12.7,2,0,93.6,395391,276243,0.0
12300,66913,1,255,12.7,2,0,93.6,395396,276256,0.0
12310,66914,1,255,12.7,2,0,93.6,395390,276292,0.0
12320,66915,1,255,12.7,2,0,93.6,395415,276304,0.0
12330,66916,1,255,12.7,2,0,93.6,395396,276249,0.0
12340,66917,1,255,12.7,2,0,93.6,395395,276292,0.0
12350,66918,1,255,12.7,2,0,93.6,395435,276308,0.0
12360,66919,1,255,12.7,2,0,93.6,395463,276331,0.0
12370,66920,1,255,12.7,2,0,93.6,395486,276362,0.0
12380,66921,1,255,12.7,2,0,93.6,395535,276378,0.0
12390,66922,1,255,12.7,2,0,93.6,395520,276367,0.0
12400,66923,1,255,12.7,2,0,93.6,395459,276348,0.0
12410,66924,1,255,12.7,2,0,93.6,395475,276348,0.0
12420,66925,1,255,12.7,2,0,93.6,395513,276370,0.0
12430,66926,1,255,12.7,2,0,93.6,395566,276430,0.0
12440,66927,1,255,12.7,2,0,93.6,395608,276420,0.0
12450,66928,1,255,12.7,2,0,93.6,395556,276420,0.0
12460,66929,1,255,12.7,2,0,93.6,395583,276421,0.0
12470,66930,1,255,12.7,2,0,93.6,395625,276427,0.0
12480,66931,1,255,12.7,2,0,93.6,395623,276443,0.0
12490,66932,1,255,12.7,2,0,93.6,395634,276436,0.0
12500,66933,1,255,12.7,2,0,93.6,395628,276474,0.0
12510,66934,1,255,12.7,2,0,93.6,395624,276478,0.0
12520,66935,1,255,12.7,2,0,93.6,395546,276428,0.0
12530,66936,1,255,12.7,2,0,93.6,395621,276455,0.0
12540,66937,1,255,12.7,2,0,93.6,395595,276408,0.0
12550,66938,1,255,12.7,2,0,93.6,395481,276340,0.0
12560,66939,1,255,12.7,2,0,93.6,395492,276324,0.0
12570,66940,1,255,12.7,2,0,93.6,395424,276303,0.0
12580,66941,1,255,12.7,2,0,93.6,395429,276261,0.0
12590,66942,1,255,12.7,2,0,93.6,395360,276239,0.0
12600,66943,1,255,12.7,2,0,93.6,395346,276238,0.0
12610,66944,1,255,12.7,2,0,93.6,395313,276177,0.0
12620,66945,1,255,12.7,2,0,93.6,395237,276154,0.0
12630,66946,1,255,12.7,2,0,93.6,395204,276145,0.0
12640,66947,1,255,12.7,2,0,93.6,395180,276094,0.0
12650,66948,1,255,12.7,2,0,93.6,395183,276113,0.0
12660,66949,1,255,12.7,2,0,93.6,395197,276083,0.0
12670,66950,1,255,12.7,2,0,93.6,395159,276094,0.0
12680,66951,1,255,12.7,2,0,93.6,395191,276076,0.0
12690,66952,1,255,12.7,2,0,93.6,395217,276101,0.0
12700,66953,1,255,12.7,2,0,93.6,395208,276118,0.0
12710,66954,1,255,12.7,2,0,93.6,395247,276187,0.0
12720,66955,1,255,12.7,2,0,93.6,395231,276138,0.0
12730,66956,1,255,12.7,2,0,93.6,395217,276151,0.0
12740,66957,1,255,12.7,2,0,93.6,395171,276110,0.0
12750,66958,1,255,12.7,2,0,93.6,395209,276161,0.0
12760,66959,1,255,12.7,2,0,93.6,395298,276186,0.0
12770,66960,1,255,12.7,2,0,93.6,395262,276224,0.0
12780,66961,1,255,12.7,2,0,93.6,395252,276221,0.0
12790,66962,1,255,12.7,2,0,93.6,395350,276205,0.0
12800,66963,1,255,12.7,2,0,93.6,395276,276246,0.0
12810,66964,1,255,12.7,2,0,93.6,395332,276240,0.0
12820,66965,1,255,12.7,2,0,93.6,395294,276219,0.0
12830,66966,1,255,12.7,2,0,93.6,395284,276177,0.0
12840,66967,1,255,12.7,2,0,93.6,395377,276261,0.0
12850,66968,1,255,12.7,2,0,93.6,395336,276223,0.0
12860,66969,1,255,12.7,2,0,93.6,395351,276275,0.0
12870,66970,1,255,12.7,2,0,93.6,395390,276243,0.0
12880,66971,1,255,12.7,2,0,93.6,395370,276281,0.0
12890,66972,1,255,12.7,2,0,93.6,395325,276257,0.0
12900,66973,1,255,12.7,2,0,93.6,395419,276293,0.0
12910,66974,1,255,12.7,2,0,93.6,395365,276266,0.0
12920,66975,1,255,12.7,2,0,93.6,395382,276266,0.0
12930,66976,1,255,12.7,2,0,93.6,395388,276330,0.0
12940,66977,1,255,12.7,2,0,93.6,395403,276310,0.0
12950,66978,1,255,12.7,2,0,93.6,395417,276314,0.0
12960,66979,1,255,12.7,2,0,93.6,395429,276303,0.0
12970,66980,1,255,12.7,2,0,93.6,395515,276319,0.0
12980,66981,1,255,12.7,2,0,93.6,395428,276343,0.0
12990,66982,1,255,12.7,2,0,93.6,395449,276367,0.0
13000,66983,1,255,12.7,2,0,93.6,395507,276313,0.0
13010,66984,1,255,12.7,2,0,93.6,395480,276360,0.0
13020,66985,1,255,12.7,2,0,93.6,395468,276377,0.0
13030,66986,1,255,12.7,2,0,93.6,395423,276376,0.0
13040,66987,1,255,12.7,2,0,93.6,395569,276352,0.0
13050,66988,1,255,12.7,2,0,93.6,395488,276326,0.0
13060,66989,1,255,12.7,2,0,93.6,395547,276318,0.0
13070,66990,1,255,12.7,2,0,93.6,395465,276375,0.0
13080,66991,1,255,12.7,2,0,93.6,395547,276391,0.0
13090,66992,1,255,12.7,2,0,93.6,395531,276380,0.0
13100,66993,1,255,12.7,2,0,93.6,395564,276389,0.0
13110,66994,1,255,12.7,2,0,93.6,395558,276359,0.0
13120,66995,1,255,12.7,2,0,93.6,395577,276431,0.0
13130,66996,1,255,12.7,2,0,93.6,395557,276407,0.0
13140,66997,1,255,12.7,2,0,93.6,395553,276422,0.0
13150,66998,1,255,12.7,2,0,93.6,395560,276399,0.0
13160,66999,1,255,12.7,2,0,93.6,395577,276389,0.0
13170,67000,1,255,12.7,2,0,93.6,395613,276422,0.0
13180,67001,1,255,12.7,2,0,93.6,395519,276393,0.0
13190,67002,1,255,12.7,2,0,93.6,395501,276375,0.0
13200,67003,1,255,12.7,2,0,93.6,395474,276337,0.0
13210,67004,1,255,12.7,2,0,93.6,395423,276291,0.0
13220,67005,1,255,12.7,2,0,93.6,395414,276206,0.0
13230,67006,1,255,12.7,2,0,93.6,395262,276171,0.0
13240,67007,1,255,12.7,2,0,93.6,395221,276129,0.0
13250,67008,1,255,12.7,2,0,93.6,395230,276156,0.0
13260,67009,1,255,12.7,2,0,93.6,395186,276124,0.0
13270,67010,1,255,12.7,2,0,93.6,395166,276087,0.0
13280,67011,1,255,12.7,2,0,93.6,395110,276019,0.0
13290,67012,1,255,12.7,2,0,93.6,395074,276019,0.0
13300,67013,1,255,12.7,2,0,93.6,395066,276056,0.0
13310,67014,1,255,12.7,2,0,93.6,395094,275971,0.0
13320,67015,1,255,12.7,2,0,93.6,394976,275985,0.0
13330,67016,1,255,12.7,2,0,93.6,395033,275945,0.0
13340,67017,1,255,12.7,2,0,93.6,394994,275908,0.0
13350,67018,1,255,12.7,2,0,93.6,394977,275915,0.0
13360,67019,1,255,12.7,2,0,93.6,394952,275904,0.0
13370,67020,1,255,12.7,2,0,93.6,395003,275925,0.0
13380,67021,1,255,12.7,2,0,93.6,395034,275939,0.0
13390,67022,1,255,12.7,2,0,93.6,395053,275957,0.0
13400,67023,1,255,12.7,2,0,93.6,395018,275896,0.0
13410,67024,1,255,12.7,2,0,93.6,395061,275912,0.0
13420,67025,1,255,12.7,2,0,93.6,395097,275953,0.0
13430,67026,1,255,12.7,2,0,93.6,395019,275949,0.0
13440,67027,1,255,12.7,2,0,93.6,395068,275961,0.0
13450,67028,1,255,12.7,2,0,93.6,395110,275977,0.0
13460,67029,1,255,12.7,2,0,93.6,395157,276040,0.0
13470,67030,1,255,12.7,2,0,93.6,395150,276043,0.0
13480,67031,1,255,12.7,2,0,93.6,395131,275986,0.0
13490,67032,1,255,12.7,2,0,93.6,395108,275997,0.0
13500,67033,1,255,12.7,2,0,93.6,395167,276029,0.0
13510,67034,1,255,12.7,2,0,93.6,395150,276061,0.0
13520,67035,1,255,12.7,2,0,93.6,395201,276081,0.0
13530,67036,1,255,12.7,2,0,93.6,395157,276061,0.0
13540,67037,1,255,12.7,2,0,93.6,395273,276093,0.0
13550,67038,1,255,12.7,2,0,93.6,395235,276106,0.0
13560,67039,1,255,12.7,2,0,93.6,395188,276089,0.0
13570,67040,1,255,12.7,2,0,93.6,395297,276083,0.0
13580,67041,1,255,12.7,2,0,93.6,395250,276072,0.0
13590,67042,1,255,12.7,2,0,93.6,395214,276095,0.0
13600,67043,1,255,12.7,2,0,93.6,395239,276061,0.0
13610,67044,1,255,12.7,2,0,93.6,395254,276121,0.0
13620,67045,1,255,12.7,2,0,93.6,395282,276114,0.0
13630,67046,1,255,12.7,2,0,93.6,395274,276102,0.0
13640,67047,1,255,12.7,2,0,93.6,395284,276156,0.0
13650,67048,1,255,12.7,2,0,93.6,395322,276143,0.0
13660,67049,1,255,12.7,2,0,93.6,395285,276101,0.0
13670,67050,1,255,12.7,2,0,93.6,395278,276095,0.0
13680,67051,1,255,12.7,2,0,93.6,395244,276124,0.0
13690,67052,1,255,12.7,2,0,93.6,395333,276159,0.0
13700,67053,1,255,12.7,2,0,93.6,395348,276193,0.0
13710,67054,1,255,12.7,2,0,93.6,395386,276206,0.0
13720,67055,1,255,12.7,2,0,93.6,395430,276211,0.0
13730,67056,1,255,12.7,2,0,93.6,395375,276222,0.0
13740,67057,1,255,12.7,2,0,93.6,395513,276280,0.0
13750,67058,1,255,12.7,2,0,93.6,395453,276249,0.0
13760,67059,1,255,12.7,2,0,93.6,395537,276283,0.0
13770,67060,1,255,12.7,2,0,93.6,395452,276263,0.0
13780,67061,1,255,12.7,2,0,93.6,395455,276254,0.0
13790,67062,1,255,12.7,2,0,93.6,395491,276244,0.0
13800,67063,1,255,12.7,2,0,93.6,395451,276262,0.0
13810,67064,1,255,12.7,2,0,93.6,395429,276307,0.0
13820,67065,1,255,12.7,2,0,93.6,395501,276267,0.0
13830,67066,1,255,12.7,2,0,93.6,395502,276308,0.0
13840,67067,1,255,12.7,2,0,93.6,395486,276306,0.0
13850,67068,1,255,12.7,2,0,93.6,395501,276329,0.0
13860,67069,1,255,12.7,2,0,93.6,395463,276322,0.0
13870,67070,1,255,12.7,2,0,93.6,395510,276293,0.0
13880,67071,1,255,12.7,2,0,93.6,395479,276248,0.0
13890,67072,1,255,12.7,2,0,93.6,395408,276250,0.0
13900,67073,1,255,12.7,2,0,93.6,395345,276203,0.0
13910,67074,1,255,12.7,2,0,93.6,395339,276172,0.0
13920,67075,1,255,12.7,2,0,93.6,395286,276135,0.0
13930,67076,1,255,12.7,2,0,93.6,395239,276060,0.0
13940,67077,1,255,12.7,2,0,93.6,395162,276035,0.0
13950,67078,1,255,12.7,2,0,93.6,395105,276047,0.0
13960,67079,1,255,12.7,2,0,93.6,395168,276057,0.0
13970,67080,1,255,12.7,2,0,93.6,395125,276033,0.0
13980,67081,1,255,12.7,2,0,93.6,395073,275974,0.0
13990,67082,1,255,12.7,2,0,93.6,395087,276025,0.0
14000,67083,1,255,12.7,2,0,93.6,395041,275950,0.0
14010,67084,1,255,12.7,2,0,93.6,395055,275985,0.0
14020,67085,1,255,12.7,2,0,93.6,395044,275916,0.0
14030,67086,1,255,12.7,2,0,93.6,395070,275944,0.0
14040,67087,1,255,12.7,2,0,93.6,395136,275921,0.0
14050,67088,1,255,12.7,2,0,93.6,395059,275993,0.0
14060,67089,1,255,12.7,2,0,93.6,394991,275966,0.0
14070,67090,1,255,12.7,2,0,93.6,395026,275954,0.0
14080,67091,1,255,12.7,2,0,93.6,395098,275984,0.0
14090,67092,1,255,12.7,2,0,93.6,395077,275953,0.0
14100,67093,1,255,12.7,2,0,93.6,395129,275988,0.0
14110,67094,1,255,12.7,2,0,93.6,395103,276041,0.0
14120,67095,1,255,12.7,2,0,93.6,395200,275991,0.0
14130,67096,1,255,12.7,2,0,93.6,395148,276038,0.0
14140,67097,1,255,12.7,2,0,93.6,395157,276043,0.0
14150,67098,1,255,12.7,2,0,93.6,395140,276042,0.0
14160,67099,1,255,12.7,2,0,93.6,395148,276046,0.0
14170,67100,1,255,12.7,2,0,93.6,395133,276038,0.0
14180,67101,1,255,12.7,2,0,93.6,395232,276117,0.0
14190,67102,1,255,12.7,2,0,93.6,395228,276132,0.0
14200,67103,1,255,12.7,2,0,93.6,395285,276105,0.0
14210,67104,1,255,12.7,2,0,93.6,395231,276134,0.0
14220,67105,1,255,12.7,2,0,93.6,395283,276152,0.0
14230,67106,1,255,12.7,2,0,93.6,395276,276136,0.0
14240,67107,1,255,12.7,2,0,93.6,395122,276198,0.0
14250,67108,1,255,12.7,2,0,93.6,395345,276166,0.0
14260,67109,1,255,12.7,2,0,93.6,395260,276154,0.0
14270,67110,1,255,12.7,2,0,93.6,395262,276139,0.0
14280,67111,1,255,12.7,2,0,93.6,395263,276146,0.0
14290,67112,1,255,12.7,2,0,93.6,395314,276117,0.0
14300,67113,1,255,12.7,2,0,93.6,395273,276121,0.0
14310,67114,1,255,12.7,2,0,93.6,395313,276161,0.0
14320,67115,1,255,12.7,2,0,93.6,395342,276182,0.0
14330,67116,1,255,12.7,2,0,93.6,395376,276205,0.0
14340,67117,1,255,12.7,2,0,93.6,395359,276209,0.0
14350,67118,1,255,12.7,2,0,93.6,395377,276191,0.0
14360,67119,1,255,12.7,2,0,93.6,395456,276218,0.0
14370,67120,1,255,12.7,2,0,93.6,395342,276231,0.0
14380,67121,1,255,12.7,2,0,93.6,395392,276229,0.0
14390,67122,1,255,12.7,2,0,93.6,395415,276248,0.0
14400,67123,1,255,12.7,2,0,93.6,395485,276287,0.0
14410,67124,1,255,12.7,2,0,93.6,395418,276272,0.0
14420,67125,1,255,12.7,2,0,93.6,395458,276298,0.0
14430,67126,1,255,12.7,2,0,93.6,395500,276297,0.0
14440,67127,1,255,12.7,2,0,93.6,395181,276318,0.0
14450,67128,1,255,12.7,2,0,93.6,395585,276348,0.0
14460,67129,1,255,12.7,2,0,93.6,395540,276341,0.0
14470,67130,1,255,12.7,2,0,93.6,395644,276388,0.0
14480,67131,1,255,12.7,2,0,93.6,395678,276434,0.0
14490,67132,1,255,12.7,2,0,93.6,395651,276431,0.0
14500,67133,1,255,12.7,2,0,93.6,395653,276435,0.0
14510,67134,1,255,12.7,2,0,93.6,395639,276441,0.0
14520,67135,1,255,12.7,2,0,93.6,395673,276494,0.0
14530,67136,1,255,12.7,2,0,93.6,395613,276433,0.0
14540,67137,1,255,12.7,2,0,93.6,395751,276463,0.0
14550,67138,1,255,12.7,2,0,93.6,395771,276502,0.0
14560,67139,1,255,12.7,2,0,93.6,395695,276447,0.0
14570,67140,1,255,12.7,2,0,93.6,395687,276454,0.0
14580,67141,1,255,12.7,2,0,93.6,395563,276408,0.0
14590,67142,1,255,12.7,2,0,93.6,395533,276352,0.0
14600,67143,1,255,12.7,2,0,93.6,395528,276301,0.0
14610,67144,1,255,12.7,2,0,93.6,395468,276291,0.0
14620,67145,1,255,12.7,2,0,93.6,395441,276240,0.0
14630,67146,1,255,12.7,2,0,93.6,395380,276228,0.0
14640,67147,1,255,12.7,2,0,93.6,395408,276242,0.0
14650,67148,1,255,12.7,2,0,93.6,395342,276260,0.0
14660,67149,1,255,12.7,2,0,93.6,395361,276230,0.0
14670,67150,1,255,12.7,2,0,93.6,395334,276217,0.0
14680,67151,1,255,12.7,2,0,93.6,395353,276152,0.0
14690,67152,1,255,12.7,2,0,93.6,395304,276129,0.0
14700,67153,1,255,12.7,2,0,93.6,395289,276131,0.0
14710,67154,1,255,12.7,2,0,93.6,395231,276129,0.0
14720,67155,1,255,12.7,2,0,93.6,395272,276087,0.0
14730,67156,1,255,12.7,2,0,93.6,395224,276113,0.0
14740,67157,1,255,12.7,2,0,93.6,395226,276118,0.0
14750,67158,1,255,12.7,2,0,93.6,395231,276090,0.0
14760,67159,1,255,12.7,2,0,93.6,395192,276127,0.0
14770,67160,1,255,12.7,2,0,93.6,395264,276112,0.0
14780,67161,1,255,12.7,2,0,93.6,395254,276111,0.0
14790,67162,1,255,12.7,2,0,93.6,395247,276140,0.0
14800,67163,1,255,12.7,2,0,93.6,395324,276176,0.0
14810,67164,1,255,12.7,2,0,93.6,395231,276155,0.0
14820,67165,1,255,12.7,2,0,93.6,395367,276173,0.0
14830,67166,1,255,12.7,2,0,93.6,395369,276192,0.0
14840,67167,1,255,12.7,2,0,93.6,395418,276226,0.0
14850,67168,1,255,12.7,2,0,93.6,395357,276235,0.0
14860,67169,1,255,12.7,2,0,93.6,395453,276243,0.0
14870,67170,1,255,12.7,2,0,93.6,395491,276308,0.0
14880,67171,1,255,12.7,2,0,93.6,395438,276286,0.0
14890,67172,1,255,12.7,2,0,93.6,395556,276323,0.0
14900,67173,1,255,12.7,2,0,93.6,395601,276347,0.0
14910,67174,1,255,12.7,2,0,93.6,395527,276363,0.0
14920,67175,1,255,12.7,2,0,93.6,395539,276344,0.0
14930,67176,1,255,12.7,2,0,93.6,395624,276385,0.0
14940,67177,1,255,12.7,2,0,93.6,395570,276404,0.0
14950,67178,1,255,12.7,2,0,93.6,395603,276391,0.0
14960,67179,1,255,12.7,2,0,93.6,395627,276359,0.0
14970,67180,1,255,12.7,2,0,93.6,395627,276377,0.0
14980,67181,1,255,12.7,2,0,93.6,395661,276416,0.0
14990,67182,1,255,12.7,2,0,93.6,395695,276458,0.0
15000,67183,1,255,12.7,2,0,93.6,395687,276425,0.0
15010,67184,1,255,12.7,2,0,93.6,395685,276455,0.0
15020,67185,1,255,12.7,2,0,93.6,395688,276465,0.0
15030,67186,1,255,12.7,2,0,93.6,395698,276459,0.0
15040,67187,1,255,12.7,2,0,93.6,395693,276455,0.0
15050,67188,1,255,12.7,2,0,93.6,395743,276521,0.0
15060,67189,1,255,12.7,2,0,93.6,395830,276479,0.0
15070,67190,1,255,12.7,2,0,93.6,395779,276503,0.0
15080,67191,1,255,12.7,2,0,93.6,395812,276581,0.0
15090,67192,1,255,12.7,2,0,93.6,395814,276583,0.0
15100,67193,1,255,12.7,2,0,93.6,395833,276568,0.0
15110,67194,1,255,12.7,2,0,93.6,395830,276567,0.0
15120,67195,1,255,12.7,2,0,93.6,395905,276605,0.0
15130,67196,1,255,12.7,2,0,93.6,395905,276628,0.0
15140,67197,1,255,12.7,2,0,93.6,395888,276674,0.0
15150,67198,1,255,12.7,2,0,93.6,395896,276593,0.0
15160,67199,1,255,12.7,2,0,93.6,395961,276607,0.0
15170,67200,1,255,12.7,2,0,93.6,395943,276650,0.0
15180,67201,1,255,12.7,2,0,93.6,395926,276630,0.0
15190,67202,1,255,12.7,2,0,93.6,395974,276715,0.0
15200,67203,1,255,12.7,2,0,93.6,395976,276667,0.0
15210,67204,1,255,12.7,2,0,93.6,395920,276642,0.0
15220,67205,1,255,12.7,2,0,93.6,396028,276690,0.0
15230,67206,1,255,12.7,2,0,93.6,396063,276708,0.0
15240,67207,1,255,12.7,2,0,93.6,396041,276468,0.0
15250,67208,1,255,12.7,2,0,93.6,396027,276683,0.0
15260,67209,1,255,12.7,2,0,93.6,396060,276700,0.0
15270,67210,1,255,12.7,2,0,93.6,396027,276717,0.0
15280,67211,1,255,12.7,2,0,93.6,396052,276664,0.0
15290,67212,1,255,12.7,2,0,93.6,395964,276636,0.0
15300,67213,1,255,12.7,2,0,93.6,395978,276650,0.0
15310,67214,1,255,12.7,2,0,93.6,395899,276622,0.0
15320,67215,1,255,12.7,2,0,93.6,395862,276568,0.0
15330,67216,1,255,12.7,2,0,93.6,395825,276528,0.0
15340,67217,1,255,12.7,2,0,93.6,395779,276357,0.0
15350,67218,1,255,12.7,2,0,93.6,395756,276552,0.0
15360,67219,1,255,12.7,2,0,93.6,395709,276474,0.0
15370,67220,1,255,12.7,2,0,93.6,395668,276398,0.0
15380,67221,1,255,12.7,2,0,93.6,395658,276457,0.0
15390,67222,1,255,12.7,2,0,93.6,395671,276450,0.0
15400,67223,1,255,12.7,2,0,93.6,395715,276497,0.0
15410,67224,1,255,12.7,2,0,93.6,395709,276475,0.0
15420,67225,1,255,12.7,2,0,93.6,395673,276456,0.0
15430,67226,1,255,12.7,2,0,93.6,395682,276423,0.0
15440,67227,1,255,12.7,2,0,93.6,395692,276457,0.0
15450,67228,1,255,12.7,2,0,93.6,395704,276436,0.0
15460,67229,1,255,12.7,2,0,93.6,395654,276467,0.0
15470,67230,1,255,12.7,2,0,93.6,395767,276486,0.0
15480,67231,1,255,12.7,2,0,93.6,395801,276469,0.0
15490,67232,1,255,12.7,2,0,93.6,395688,276477,0.0
15500,67233,1,255,12.7,2,0,93.6,395784,276553,0.0
15510,67234,1,255,12.7,2,0,93.6,395796,276534,0.0
15520,67235,1,255,12.7,2,0,93.6,395741,276494,0.0
15530,67236,1,255,12.7,2,0,93.6,395747,276577,0.0
15540,67237,1,255,12.7,2,0,93.6,395772,276502,0.0
15550,67238,1,255,12.7,2,0,93.6,395782,276528,0.0
15560,67239,1,255,12.7,2,0,93.6,395863,276552,0.0
15570,67240,1,255,12.7,2,0,93.6,395822,276556,0.0
15580,67241,1,255,12.7,2,0,93.6,395811,276565,0.0
15590,67242,1,255,12.7,2,0,93.6,395876,276563,0.0
15600,67243,1,255,12.7,2,0,93.6,395889,276548,0.0
15610,67244,1,255,12.7,2,0,93.6,395820,276579,0.0
15620,67245,1,255,12.7,2,0,93.6,395804,276564,0.0
15630,67246,1,255,12.7,2,0,93.6,395860,276590,0.0
15640,67247,1,255,12.7,2,0,93.6,395888,276526,0.0
15650,67248,1,255,12.7,2,0,93.6,395887,276586,0.0
15660,67249,1,255,12.7,2,0,93.6,395809,276567,0.0
15670,67250,1,255,12.7,2,0,93.6,395866,276570,0.0
15680,67251,1,255,12.7,2,0,93.6,395868,276632,0.0
15690,67252,1,255,12.7,2,0,93.6,395884,276580,0.0
15700,67253,1,255,12.7,2,0,93.6,395886,276630,0.0
15710,67254,1,255,12.7,2,0,93.6,395903,276559,0.0
15720,67255,1,255,12.7,2,0,93.6,395830,276581,0.0
15730,67256,1,255,12.7,2,0,93.6,395839,276611,0.0
15740,67257,1,255,12.7,2,0,93.6,395843,276624,0.0
15750,67258,1,255,12.7,2,0,93.6,395845,276602,0.0
15760,67259,1,255,12.7,2,0,93.6,395884,276611,0.0
15770,67260,1,255,12.7,2,0,93.6,395986,276656,0.0
15780,67261,1,255,12.7,2,0,93.6,395841,276645,0.0
15790,67262,1,255,12.7,2,0,93.6,395940,276656,0.0
15800,67263,1,255,12.7,2,0,93.6,395883,276626,0.0
15810,67264,1,255,12.7,2,0,93.6,395901,276610,0.0
15820,67265,1,255,12.7,2,0,93.6,395834,276587,0.0
15830,67266,1,255,12.7,2,0,93.6,395925,276656,0.0
15840,67267,1,255,12.7,2,0,93.6,395848,276632,0.0
15850,67268,1,255,12.7,2,0,93.6,395864,276626,0.0
15860,67269,1,255,12.7,2,0,93.6,395889,276591,0.0
15870,67270,1,255,12.7,2,0,93.6,395888,276635,0.0
15880,67271,1,255,12.7,2,0,93.6,395962,276687,0.0
15890,67272,1,255,12.7,2,0,93.6,395911,276629,0.0
15900,67273,1,255,12.7,2,0,93.6,395906,276622,0.0
15910,67274,1,255,12.7,2,0,93.6,395907,276677,0.0
15920,67275,1,255,12.7,2,0,93.6,395864,276659,0.0
15930,67276,1,255,12.7,2,0,93.6,395864,276611,0.0
15940,67277,1,255,12.7,2,0,93.6,395869,276627,0.0
15950,67278,1,255,12.7,2,0,93.6,395765,276554,0.0
15960,67279,1,255,12.7,2,0,93.6,395744,276515,0.0
15970,67280,1,255,12.7,2,0,93.6,395663,276442,0.0
15980,67281,1,255,12.7,2,0,93.6,395618,276412,0.0
15990,67282,1,255,12.7,2,0,93.6,395571,276412,0.0
16000,67283,1,255,12.7,2,0,93.6,395529,276425,0.0
16010,67284,1,255,12.7,2,0,93.6,395584,276348,0.0
16020,67285,1,255,12.7,2,0,93.6,395490,276312,0.0
16030,67286,1,255,12.7,2,0,93.6,395455,276346,0.0
16040,67287,1,255,12.7,2,0,93.6,395424,276326,0.0
16050,67288,1,255,12.7,2,0,93.6,395424,276275,0.0
16060,67289,1,255,12.7,2,0,93.6,395351,276231,0.0
16070,67290,1,255,12.7,2,0,93.6,395387,276262,0.0
16080,67291,1,255,12.7,2,0,93.6,395382,276233,0.0
16090,67292,1,255,12.7,2,0,93.6,395357,276207,0.0
16100,67293,1,255,12.7,2,0,93.6,395385,276255,0.0
16110,67294,1,255,12.7,2,0,93.6,395329,276169,0.0
16120,67295,1,255,12.7,2,0,93.6,395275,276180,0.0
16130,67296,1,255,12.7,2,0,93.6,395328,276225,0.0
16140,67297,1,255,12.7,2,0,93.6,395359,276216,0.0
16150,67298,1,255,12.7,2,0,93.6,395317,276219,0.0
16160,67299,1,255,12.7,2,0,93.6,395366,276266,0.0
16170,67300,1,255,12.7,2,0,93.6,395407,276296,0.0
16180,67301,1,255,12.7,2,0,93.6,395394,276251,0.0
16190,67302,1,255,12.7,2,0,93.6,395399,276287,0.0
16200,67303,1,255,12.7,2,0,93.6,395469,276246,0.0
16210,67304,1,255,12.7,2,0,93.6,395425,276253,0.0
16220,67305,1,255,12.7,2,0,93.6,395481,276270,0.0
16230,67306,1,255,12.7,2,0,93.6,395461,276322,0.0
16240,67307,1,255,12.7,2,0,93.6,395435,276279,0.0
16250,67308,1,255,12.7,2,0,93.6,395427,276259,0.0
16260,67309,1,255,12.7,2,0,93.6,395387,276249,0.0
16270,67310,1,255,12.7,2,0,93.6,395450,276302,0.0
16280,67311,1,255,12.7,2,0,93.6,395448,276319,0.0
16290,67312,1,255,12.7,2,0,93.6,395504,276309,0.0
16300,67313,1,255,12.7,2,0,93.6,395539,276299,0.0
16310,67314,1,255,12.7,2,0,93.6,395503,276299,0.0
16320,67315,1,255,12.7,2,0,93.6,395567,276357,0.0
16330,67316,1,255,12.7,2,0,93.6,395562,276330,0.0
16340,67317,1,255,12.7,2,0,93.6,395519,276368,0.0
16350,67318,1,255,12.7,2,0,93.6,395595,276422,0.0
16360,67319,1,255,12.7,2,0,93.6,395569,276367,0.0
16370,67320,1,255,12.7,2,0,93.6,395575,276378,0.0
16380,67321,1,255,12.7,2,0,93.6,395588,276417,0.0
16390,67322,1,255,12.7,2,0,93.6,395645,276389,0.0
16400,67323,1,255,12.7,2,0,93.6,395574,276406,0.0
16410,67324,1,255,12.7,2,0,93.6,395630,276443,0.0
16420,67325,1,255,12.7,2,0,93.6,395688,276493,0.0
16430,67326,1,255,12.7,2,0,93.6,395703,276439,0.0
16440,67327,1,255,12.7,2,0,93.6,395682,276483,0.0
16450,67328,1,255,12.7,2,0,93.1,395688,276469,0.0
16460,67329,1,255,12.7,2,0,93.1,395726,276494,0.0
16470,67330,1,255,12.7,2,0,93.1,395764,276523,0.0
16480,67331,1,255,12.7,2,0,93.1,395768,276570,0.0
16490,67332,1,255,12.7,2,0,93.1,395761,276490,0.0
16500,67333,1,255,12.7,2,0,93.1,395834,276531,0.0
16510,67334,1,255,12.7,2,0,93.1,395779,276493,0.0
16520,67335,1,255,12.7,2,0,93.1,395803,276546,0.0
16530,67336,1,255,12.7,2,0,93.1,395824,276536,0.0
16540,67337,1,255,12.7,2,0,93.1,395859,276572,0.0
16550,67338,1,255,12.7,2,0,93.1,395784,276513,0.0
16560,67339,1,255,12.7,2,0,93.1,395849,276614,0.0
16570,67340,1,255,12.7,2,0,93.1,395888,276570,0.0
16580,67341,1,255,12.7,2,0,93.1,395885,276577,0.0
16590,67342,1,255,12.7,2,0,93.1,395877,276635,0.0
16600,67343,1,255,12.7,2,0,93.1,395821,276572,0.0
16610,67344,1,255,12.7,2,0,93.1,395852,276599,0.0
16620,67345,1,255,12.7,2,0,93.1,395869,276592,0.0
16630,67346,1,255,12.7,2,0,93.1,395806,276545,0.0
16640,67347,1,255,12.7,2,0,93.1,395749,276502,0.0
16650,67348,1,255,12.7,2,0,93.1,395688,276430,0.0
16660,67349,1,255,12.7,2,0,93.1,395648,276418,0.0
16670,67350,1,255,12.7,2,0,93.1,395625,276369,0.0
16680,67351,1,255,12.7,2,0,93.1,395505,276327,0.0
16690,67352,1,255,12.7,2,0,93.1,395447,276312,0.0
16700,67353,1,255,12.7,2,0,93.1,395372,276260,0.0
16710,67354,1,255,12.7,2,0,93.1,395415,276272,0.0
16720,67355,1,255,12.7,2,0,93.1,395394,276274,0.0
16730,67356,1,255,12.7,2,0,93.1,395410,276277,0.0
16740,67357,1,255,12.7,2,0,93.1,395353,276272,0.0
16750,67358,1,255,12.7,2,0,93.1,395375,276230,0.0
16760,67359,1,255,12.7,2,0,93.1,395360,276236,0.0
16770,67360,1,255,12.7,2,0,93.1,395374,276212,0.0
16780,67361,1,255,12.7,2,0,93.1,395304,276183,0.0
16790,67362,1,255,12.7,2,0,93.1,395353,276191,0.0
16800,67363,1,255,12.7,2,0,93.1,395375,276229,0.0
16810,67364,1,255,12.7,2,0,93.1,395341,276206,0.0
16820,67365,1,255,12.7,2,0,93.1,395470,276252,0.0
16830,67366,1,255,12.7,2,0,93.1,395426,276226,0.0
16840,67367,1,255,12.7,2,0,93.1,395374,276259,0.0
16850,67368,1,255,12.7,2,0,93.1,395408,276251,0.0
16860,67369,1,255,12.7,2,0,93.1,395411,276228,0.0
16870,67370,1,255,12.7,2,0,93.1,395401,276233,0.0
16880,67371,1,255,12.7,2,0,93.1,395384,276252,0.0
16890,67372,1,255,12.7,2,0,93.1,395462,276262,0.0
16900,67373,1,255,12.7,2,0,93.1,395466,276334,0.0
16910,67374,1,255,12.7,2,0,93.1,395451,276326,0.0
16920,67375,1,255,12.7,2,0,93.1,395444,276328,0.0
16930,67376,1,255,12.7,2,0,93.1,395429,276246,0.0
16940,67377,1,255,12.7,2,0,93.1,395411,276281,0.0
16950,67378,1,255,12.7,2,0,93.1,395415,276263,0.0
16960,67379,1,255,12.7,2,0,93.1,395459,276344,0.0
16970,67380,1,255,12.7,2,0,93.1,395502,276322,0.0
16980,67381,1,255,12.7,2,0,93.1,395525,276346,0.0
16990,67382,1,255,12.7,2,0,93.1,395566,276363,0.0
17000,67383,1,255,12.7,2,0,93.1,395568,276419,0.0
17010,67384,1,255,12.7,2,0,93.1,395542,276411,0.0
17020,67385,1,255,12.7,2,0,93.1,395638,276418,0.0
17030,67386,1,255,12.7,2,0,93.1,395550,276375,0.0
17040,67387,1,255,12.7,2,0,93.1,395581,276392,0.0
17050,67388,1,255,12.7,2,0,93.1,395533,276389,0.0
17060,67389,1,255,12.7,2,0,93.1,395610,276402,0.0
17070,67390,1,255,12.7,2,0,93.1,395621,276406,0.0
17080,67391,1,255,12.7,2,0,93.1,395649,276399,0.0
17090,67392,1,255,12.7,2,0,93.1,395674,276455,0.0
17100,67393,1,255,12.7,2,0,93.1,395689,276444,0.0
17110,67394,1,255,12.7,2,0,93.1,395640,276445,0.0
17120,67395,1,255,12.7,2,0,93.1,395691,276459,0.0
17130,67396,1,255,12.7,2,0,93.1,395651,276446,0.0
17140,67397,1,255,12.7,2,0,93.1,395650,276470,0.0
17150,67398,1,255,12.7,2,0,93.1,395702,276456,0.0
17160,67399,1,255,12.7,2,0,93.1,395756,276483,0.0
17170,67400,1,255,12.7,2,0,93.1,395770,276488,0.0
17180,67401,1,255,12.7,2,0,93.1,395748,276489,0.0
17190,67402,1,255,12.7,2,0,93.1,395772,276496,0.0
17200,67403,1,255,12.7,2,0,93.1,395724,276525,0.0
17210,67404,1,255,12.7,2,0,93.1,395777,276553,0.0
17220,67405,1,255,12.7,2,0,93.1,395748,276470,0.0
17230,67406,1,255,12.7,2,0,93.1,395776,276523,0.0
17240,67407,1,255,12.7,2,0,93.1,395806,276544,0.0
17250,67408,1,255,12.7,2,0,93.1,395793,276550,0.0
17260,67409,1,255,12.7,2,0,93.1,395832,276568,0.0
17270,67410,1,255,12.7,2,0,93.1,395821,276500,0.0
17280,67411,1,255,12.7,2,0,93.1,395753,276557,0.0
17290,67412,1,255,12.7,2,0,93.1,395882,276535,0.0
17300,67413,1,255,12.7,2,0,93.1,395781,276511,0.0
17310,67414,1,255,12.7,2,0,93.1,395780,276485,0.0
17320,67415,1,255,12.7,2,0,93.1,395757,276466,0.0
17330,67416,1,255,12.7,2,0,93.1,395669,276410,0.0
17340,67417,1,255,12.7,2,0,93.1,395691,276361,0.0
17350,67418,1,255,12.7,2,0,93.1,395617,276365,0.0
17360,67419,1,255,12.7,2,0,93.1,395606,276359,0.0
17370,67420,1,255,12.7,2,0,93.1,395562,276359,0.0
17380,67421,1,255,12.7,2,0,93.1,395496,276283,0.0
17390,67422,1,255,12.7,2,0,93.1,395473,276268,0.0
17400,67423,1,255,12.7,2,0,93.1,395547,276311,0.0
17410,67424,1,255,12.7,2,0,93.1,395468,276236,0.0
17420,67425,1,255,12.7,2,0,93.1,395443,276215,0.0
17430,67426,1,255,12.7,2,0,93.1,395460,276220,0.0
17440,67427,1,255,12.7,2,0,93.1,395313,276175,0.0
17450,67428,1,255,12.7,2,0,93.1,395316,276149,0.0
17460,67429,1,255,12.7,2,0,93.1,395353,276161,0.0
17470,67430,1,255,12.7,2,0,93.1,395379,276126,0.0
17480,67431,1,255,12.7,2,0,93.1,395338,276161,0.0
17490,67432,1,255,12.7,2,0,93.1,395397,276140,0.0
17500,67433,1,255,12.7,2,0,93.1,395353,276148,0.0
17510,67434,1,255,12.7,2,0,93.1,395379,276173,0.0
17520,67435,1,255,12.7,2,0,93.1,395404,276242,0.0
17530,67436,1,255,12.7,2,0,93.1,395439,276228,0.0
17540,67437,1,255,12.7,2,0,93.1,395474,276239,0.0
17550,67438,1,255,12.7,2,0,93.1,395539,276305,0.0
17560,67439,1,255,12.7,2,0,93.1,395603,276328,0.0
17570,67440,1,255,12.7,2,0,93.1,395566,276322,0.0
17580,67441,1,255,12.7,2,0,93.1,395606,276318,0.0
17590,67442,1,255,12.7,2,0,93.1,395648,276367,0.0
17600,67443,1,255,12.7,2,0,93.1,395661,276337,0.0
17610,67444,1,255,12.7,2,0,93.1,395742,276381,0.0
17620,67445,1,255,12.7,2,0,93.1,395731,276400,0.0
17630,67446,1,255,12.7,2,0,93.1,395679,276462,0.0
17640,67447,1,255,12.7,2,0,93.1,395757,276405,0.0
17650,67448,1,255,12.7,2,0,93.1,395788,276443,0.0
17660,67449,1,255,12.7,2,0,93.1,395747,276475,0.0
17670,67450,1,255,12.7,2,0,93.1,395841,276496,0.0
17680,67451,1,255,12.7,2,0,93.1,395862,276482,0.0
17690,67452,1,255,12.7,2,0,93.1,395833,276534,0.0
17700,67453,1,255,12.7,2,0,93.1,395824,276482,0.0
17710,67454,1,255,12.7,2,0,93.1,395799,276475,0.0
17720,67455,1,255,12.7,2,0,93.1,395902,276531,0.0
17730,67456,1,255,12.7,2,0,93.1,395872,276516,0.0
17740,67457,1,255,12.7,2,0,93.1,395898,276525,0.0
17750,67458,1,255,12.7,2,0,93.1,395874,276546,0.0
17760,67459,1,255,12.7,2,0,93.1,395876,276522,0.0
17770,67460,1,255,12.7,2,0,93.1,395856,276515,0.0
17780,67461,1,255,12.7,2,0,93.1,395952,276543,0.0
17790,67462,1,255,12.7,2,0,93.1,395995,276589,0.0
17800,67463,1,255,12.7,2,0,93.1,395995,276628,0.0
17810,67464,1,255,12.7,2,0,93.1,396006,276605,0.0
17820,67465,1,255,12.7,2,0,93.1,396068,276606,0.0
17830,67466,1,255,12.7,2,0,93.1,396069,276685,0.0
17840,67467,1,255,12.7,2,0,93.1,396047,276650,0.0
17850,67468,1,255,12.7,2,0,93.1,396088,276651,0.0
17860,67469,1,255,12.7,2,0,93.1,396129,276725,0.0
17870,67470,1,255,12.7,2,0,93.1,396134,276702,0.0
17880,67471,1,255,12.7,2,0,93.1,396139,276709,0.0
17890,67472,1,255,12.7,2,0,93.1,396139,276730,0.0
17900,67473,1,255,12.7,2,0,93.1,396144,276751,0.0
17910,67474,1,255,12.7,2,0,93.1,396278,276768,0.0
17920,67475,1,255,12.7,2,0,93.1,396317,276812,0.0
17930,67476,1,255,12.7,2,0,93.1,396224,276787,0.0
17940,67477,1,255,12.7,2,0,93.1,396360,276821,0.0
17950,67478,1,255,12.7,2,0,93.1,396208,276816,0.0
17960,67479,1,255,12.7,2,0,93.1,396283,276837,0.0
17970,67480,1,255,12.7,2,0,93.1,396304,276823,0.0
17980,67481,1,255,12.7,2,0,93.1,396266,276843,0.0
17990,67482,1,255,12.7,2,0,93.1,396255,276806,0.0
18000,67483,1,255,12.7,2,0,93.1,396248,276787,0.0
18010,67484,1,255,12.7,2,0,93.1,396254,276771,0.0
18020,67485,1,255,12.7,2,0,93.1,396108,276700,0.0
18030,67486,1,255,12.7,2,0,93.1,396131,276701,0.0
18040,67487,1,255,12.7,2,0,93.1,396077,276679,0.0
18050,67488,1,255,12.7,2,0,93.1,396003,276646,0.0
18060,67489,1,255,12.7,2,0,93.1,395934,276549,0.0
18070,67490,1,255,12.7,2,0,93.1,395881,276562,0.0
18080,67491,1,255,12.7,2,0,93.1,395880,276562,0.0
18090,67492,1,255,12.7,2,0,93.1,395888,276550,0.0
18100,67493,1,255,12.7,2,0,93.1,395834,276505,0.0
18110,67494,1,255,12.7,2,0,93.1,395876,276464,0.0
18120,67495,1,255,12.7,2,0,93.1,395827,276509,0.0
18130,67496,1,255,12.7,2,0,93.1,395783,276493,0.0
18140,67497,1,255,12.7,2,0,93.1,395824,276444,0.0
18150,67498,1,255,12.7,2,0,93.1,395728,276422,0.0
18160,67499,1,255,12.7,2,0,93.1,395786,276471,0.0
18170,67500,1,255,12.7,2,0,93.1,395770,276489,0.0
18180,67501,1,255,12.7,2,0,93.1,395744,276430,0.0
18190,67502,1,255,12.7,2,0,93.1,395830,276473,0.0
18200,67503,1,255,12.7,2,0,93.1,395837,276479,0.0
18210,67504,1,255,12.7,2,0,93.1,395842,276477,0.0
18220,67505,1,255,12.7,2,0,93.1,395791,276491,0.0
18230,67506,1,255,12.7,2,0,93.1,395789,276433,0.0
18240,67507,1,255,12.7,2,0,93.1,395874,276510,0.0
18250,67508,1,255,12.7,2,0,93.1,395800,276520,0.0
18260,67509,1,255,12.7,2,0,93.1,395851,276550,0.0
18270,67510,1,255,12.7,2,0,93.1,395869,276495,0.0
18280,67511,1,255,12.7,2,0,93.1,395908,276541,0.0
18290,67512,1,255,12.7,2,0,93.1,395870,276551,0.0
18300,67513,1,255,12.7,2,0,93.1,395925,276561,0.0
18310,67514,1,255,12.7,2,0,93.1,395966,276555,0.0
18320,67515,1,255,12.7,2,0,93.1,395924,276586,0.0
18330,67516,1,255,12.7,2,0,93.1,395930,276561,0.0
18340,67517,1,255,12.7,2,0,93.1,395958,276603,0.0
18350,67518,1,255,12.7,2,0,93.1,395946,276571,0.0
18360,67519,1,255,12.7,2,0,93.1,396006,276606,0.0
18370,67520,1,255,12.7,2,0,93.1,395953,276634,0.0
18380,67521,1,255,12.7,2,0,93.1,396001,276622,0.0
18390,67522,1,255,12.7,2,0,93.1,395931,276583,0.0
18400,67523,1,255,12.7,2,0,93.1,395902,276565,0.0
18410,67524,1,255,12.7,2,0,93.1,395906,276588,0.0
18420,67525,1,255,12.7,2,0,93.1,395982,276592,0.0
18430,67526,1,255,12.7,2,0,93.1,395910,276585,0.0
18440,67527,1,255,12.7,2,0,93.1,395932,276591,0.0
18450,67528,1,255,12.7,2,0,93.1,395928,276570,0.0
18460,67529,1,255,12.7,2,0,93.1,395963,276567,0.0
18470,67530,1,255,12.7,2,0,93.1,395957,276579,0.0
18480,67531,1,255,12.7,2,0,93.1,395990,276589,0.0
18490,67532,1,255,12.7,2,0,93.1,395903,276569,0.0
18500,67533,1,255,12.7,2,0,93.1,395921,276571,0.0
18510,67534,1,255,12.7,2,0,93.1,395986,276593,0.0
18520,67535,1,255,12.7,2,0,93.1,395945,276578,0.0
18530,67536,1,255,12.7,2,0,93.1,395955,276676,0.0
18540,67537,1,255,12.7,2,0,93.1,395960,276598,0.0
18550,67538,1,255,12.7,2,0,93.1,395973,276611,0.0
18560,67539,1,255,12.7,2,0,93.1,396031,276660,0.0
18570,67540,1,255,12.7,2,0,93.1,395981,276592,0.0
18580,67541,1,255,12.7,2,0,93.1,396006,276625,0.0
18590,67542,1,255,12.7,2,0,93.1,395997,276617,0.0
18600,67543,1,255,12.7,2,0,93.1,395987,276639,0.0
18610,67544,1,255,12.7,2,0,93.1,395960,276637,0.0
18620,67545,1,255,12.7,2,0,93.1,395995,276687,0.0
18630,67546,1,255,12.7,2,0,93.1,396024,276635,0.0
18640,67547,1,255,12.7,2,0,93.1,396016,276601,0.0
18650,67548,1,255,12.7,2,0,93.1,395978,276629,0.0
18660,67549,1,255,12.7,2,0,93.1,395959,276629,0.0
18670,67550,1,255,12.7,2,0,93.1,395940,276581,0.0
18680,67551,1,255,12.7,2,0,93.1,395922,276567,0.0
18690,67552,1,255,12.7,2,0,93.1,395834,276522,0.0
18700,67553,1,255,12.7,2,0,93.1,395830,276492,0.0
18710,67554,1,255,12.7,2,0,93.1,395757,276424,0.0
18720,67555,1,255,12.7,2,0,93.1,395709,276410,0.0
18730,67556,1,255,12.7,2,0,93.1,395697,276371,0.0
18740,67557,1,255,12.7,2,0,93.1,395626,276323,0.0
18750,67558,1,255,12.7,2,0,93.1,395636,276322,0.0
18760,67559,1,255,12.7,2,0,93.1,395555,276297,0.0
18770,67560,1,255,12.7,2,0,93.1,395494,276230,0.0
18780,67561,1,255,12.7,2,0,93.1,395565,276289,0.0
18790,67562,1,255,12.7,2,0,93.1,395514,276259,0.0
18800,67563,1,255,12.7,2,0,93.1,395459,276234,0.0
18810,67564,1,255,12.7,2,0,93.1,395420,276201,0.0
18820,67565,1,255,12.7,2,0,93.1,395459,276225,0.0
18830,67566,1,255,12.7,2,0,93.1,395426,276210,0.0
18840,67567,1,255,12.7,2,0,93.1,395470,276231,0.0
18850,67568,1,255,12.7,2,0,93.1,395389,276189,0.0
18860,67569,1,255,12.7,2,0,93.1,395445,276192,0.0
18870,67570,1,255,12.7,2,0,93.1,395376,276210,0.0
18880,67571,1,255,12.7,2,0,93.1,395371,276203,0.0
18890,67572,1,255,12.7,2,0,93.1,395419,276236,0.0
18900,67573,1,255,12.7,2,0,93.1,395467,276227,0.0
18910,67574,1,255,12.7,2,0,93.1,395463,276234,0.0
18920,67575,1,255,12.7,2,0,93.1,395482,276263,0.0
18930,67576,1,255,12.7,2,0,93.1,395517,276266,0.0
18940,67577,1,255,12.7,2,0,93.1,395533,276332,0.0
18950,67578,1,255,12.7,2,0,93.1,395489,276313,0.0
18960,67579,1,255,12.7,2,0,93.1,395588,276321,0.0
18970,67580,1,255,12.7,2,0,93.1,395566,276294,0.0
