TIMESTAMP_MS,COUNTER,DEVICE_ID,PULSE_BPM,SPO2_PCT,SPO2_STATUS,PLETH,BATTERY_PCT,RED_ADC,IR_ADC,PERFUSION_INDEX
0,9,1,73,98.5,0,39208,6.6,220478,167427,10.9
10,10,1,73,98.5,0,38336,6.6,220864,167891,10.9
20,11,1,73,98.5,0,37400,6.6,221222,168386,10.9
30,12,1,73,98.5,0,36405,6.6,221587,168833,10.9
40,13,1,73,98.5,0,35351,6.6,221906,169332,10.9
50,14,1,73,98.5,0,34236,6.6,222305,169788,10.9
60,15,1,73,98.5,0,33071,6.6,222617,170246,10.9
70,16,1,73,98.5,0,31870,6.6,222977,170730,10.9
80,17,1,73,98.5,0,30644,6.6,223273,171120,10.9
90,18,1,73,98.5,0,29393,6.6,223576,171497,10.9
100,19,1,73,98.5,0,28138,6.6,223860,171910,10.9
110,20,1,73,98.5,0,26895,6.6,224150,172268,10.9
120,21,1,73,98.5,0,25664,6.6,224400,172637,10.9
130,22,1,73,98.5,0,24456,6.6,224651,172956,10.9
140,23,1,73,98.5,0,23287,6.6,224887,173259,10.9
150,24,1,73,98.5,0,22163,6.6,225116,173577,10.9
160,25,1,73,98.5,0,21099,6.6,225319,173919,10.9
170,26,1,73,98.5,0,20091,6.6,225547,174159,10.9
180,27,1,73,98.5,0,19140,6.6,225781,174467,10.9
190,28,1,73,98.5,0,18255,6.6,225997,174720,10.9
200,29,1,73,98.5,0,17433,6.6,226241,175031,10.9
210,30,1,73,98.5,0,16678,6.6,226376,175282,10.9
220,31,1,73,98.5,0,15980,6.6,226637,175589,10.9
230,32,1,73,98.5,0,15340,6.6,226817,175847,10.9
240,33,1,73,98.5,0,14752,6.6,226964,176101,10.9
250,34,1,73,98.5,0,14212,6.6,227127,176264,10.9
260,35,1,73,98.5,0,13708,6.6,227128,176345,10.9
270,36,1,73,98.5,0,13241,6.6,227052,176165,10.9
280,37,1,73,98.5,0,12822,6.6,226563,175340,10.9
290,38,1,73,98.5,0,12444,6.6,225208,173472,10.9
300,39,1,73,98.5,0,12147,6.6,223205,170801,10.9
310,40,1,73,98.5,0,11986,6.6,221050,167940,10.9
320,41,1,73,98.5,0,12043,6.6,219110,165496,10.9
330,42,1,73,98.5,0,12422,6.6,217628,163630,10.9
340,43,1,73,98.5,0,13220,6.6,216528,162163,10.9
350,44,1,73,98.5,0,14516,6.6,215665,161038,10.9
360,45,1,73,98.5,0,16365,6.6,214935,160024,10.9
370,46,1,73,98.5,0,18777,6.6,214338,159255,10.9
380,47,1,73,98.5,0,21735,6.6,213791,158546,10.9
390,48,1,73,98.5,0,25178,6.6,213355,157960,10.9
400,49,1,73,98.5,0,29009,6.6,212943,157442,10.9
410,50,1,73,98.5,0,33125,6.6,212546,156952,10.9
420,51,1,73,98.5,0,37396,6.6,212212,156460,10.9
430,52,1,73,98.5,0,41684,6.6,211891,156082,10.9
440,53,1,73,98.5,0,45863,6.6,211569,155700,10.9
450,54,1,73,98.5,0,49810,6.6,211340,155399,10.9
460,55,1,73,98.5,0,53437,6.6,211103,155100,10.9
470,56,1,73,98.5,0,56664,6.6,210958,154942,10.9
480,57,1,73,98.5,0,59448,6.6,210858,154802,10.9
490,58,1,73,98.5,0,61759,6.6,210851,154844,10.9
500,59,1,73,98.5,0,62258,6.6,210973,155012,10.9
510,60,1,73,98.5,0,62258,6.6,211234,155312,10.9
520,61,1,73,98.5,0,62258,6.6,211537,155713,10.9
530,62,1,73,98.5,0,62258,6.6,211863,156158,10.9
540,63,1,73,98.5,0,62258,6.6,212240,156635,10.9
550,64,1,73,98.5,8,62108,6.6,212496,157051,10.9
560,65,1,73,98.5,0,61696,6.6,212899,157457,10.9
570,66,1,73,98.5,0,61060,6.6,213175,157788,10.9
580,67,1,73,98.5,0,60229,6.6,213368,158087,10.9
590,68,1,73,98.5,0,59235,6.6,213552,158309,10.9
600,69,1,73,98.5,0,58121,6.6,213695,158490,10.9
610,70,1,73,98.5,0,56918,6.6,213854,158715,10.9
620,71,1,73,98.5,0,55656,6.6,214002,158914,10.9
630,72,1,73,98.5,0,54367,6.6,214149,159097,10.9
640,73,1,73,98.5,0,53087,6.6,214311,159346,10.9
650,74,1,73,98.5,0,51835,6.6,214412,159584,10.9
660,75,1,73,98.5,0,50626,6.6,214756,159827,10.9
670,76,1,73,98.5,0,49487,6.6,214940,160143,10.9
680,77,1,73,98.5,0,48413,6.6,215206,160461,10.9
690,78,1,73,98.5,0,47409,6.6,215434,160806,10.9
700,79,1,73,98.5,0,46479,6.6,215767,161208,10.9
710,80,1,73,98.5,0,45610,6.6,216068,161626,10.9
720,81,1,73,98.5,0,44791,6.6,216305,161947,10.9
730,82,1,73,98.5,0,44009,6.6,216703,162440,10.9
740,83,1,73,98.5,0,43259,6.6,217004,162902,10.9
750,84,1,73,98.5,0,42507,6.6,217242,163375,10.9
760,85,1,73,98.5,0,41754,6.6,217760,163838,10.9
770,86,1,73,98.5,0,40971,6.6,218117,164348,10.9
780,87,1,73,98.5,0,40157,6.6,218473,164843,10.9
790,88,1,73,98.5,0,39298,6.6,218857,165351,10.9
800,89,1,73,98.5,0,38394,6.6,219246,165874,10.9
810,90,1,73,98.5,0,37430,6.6,219627,166353,10.9
820,91,1,73,98.5,0,36414,6.6,219989,166833,10.9
830,92,1,73,98.5,0,35347,6.6,220361,167292,10.9
840,93,1,73,98.5,0,34233,6.6,220705,167795,10.9
850,94,1,73,98.5,0,33076,6.6,221028,168191,10.9
860,95,1,73,98.5,0,31891,6.6,221383,168726,10.9
870,96,1,73,98.5,0,30676,6.6,221704,169117,10.9
880,97,1,73,98.5,0,29458,6.6,222046,169563,10.9
890,98,1,73,98.5,0,28240,6.6,222332,169993,10.9
900,99,1,73,98.5,0,27029,6.6,222599,170369,10.9
910,100,1,73,98.5,0,25838,6.6,222902,170797,10.9
920,101,1,73,98.5,0,24679,6.6,223161,171116,10.9
930,102,1,74,98.4,0,23561,6.6,223354,171462,10.9
940,103,1,74,98.4,0,22485,6.6,223630,171792,10.9
950,104,1,74,98.4,0,21451,6.6,223846,172094,10.9
960,105,1,74,98.4,0,20479,6.6,224034,172421,10.9
970,106,1,74,98.4,0,19560,6.6,224346,172721,10.9
980,107,1,74,98.4,0,18699,6.6,224550,173050,10.9
990,108,1,74,98.4,0,17891,6.6,224708,173351,10.9
1000,109,1,74,98.4,0,17142,6.6,224986,173640,10.9
1010,110,1,74,98.4,0,16446,6.6,225207,173917,10.9
1020,111,1,74,98.4,0,15805,6.6,225413,174260,10.9
1030,112,1,74,98.4,0,15207,6.6,225636,174564,10.9
1040,113,1,74,98.4,0,14649,6.6,225862,174821,10.9
1050,114,1,74,98.4,0,14125,6.6,226086,175075,10.9
1060,115,1,74,98.4,0,13631,6.6,226259,175330,10.9
1070,116,1,74,98.4,0,13166,6.6,226436,175554,10.9
1080,117,1,74,98.4,0,12717,6.6,226496,175661,10.9
1090,118,1,74,98.4,0,12297,6.6,226497,175612,10.9
1100,119,1,74,98.4,0,11902,6.6,226194,175146,10.9
1110,120,1,74,98.4,0,11543,6.6,225179,173672,10.9
1120,121,1,74,98.4,0,11238,6.6,223528,171333,10.9
1130,122,1,74,98.4,0,11037,6.6,221297,168438,10.9
1140,123,1,74,98.4,0,11001,6.6,219162,165729,10.9
1150,124,1,74,98.4,0,11224,6.6,217398,163604,10.9
1160,125,1,74,98.4,0,11810,6.6,216185,161988,10.9
1170,126,1,74,98.4,0,12840,6.6,215266,160726,10.9
1180,127,1,74,98.4,0,14379,6.6,214445,159665,10.9
1190,128,1,74,98.4,0,16463,6.6,213775,158785,10.9
1200,129,1,74,98.4,0,19083,6.6,213252,158069,10.9
1210,130,1,74,98.4,0,22187,6.6,212716,157387,10.9
1220,131,1,74,98.4,0,25703,6.6,212272,156841,10.9
1230,132,1,74,98.4,0,29536,6.6,211880,156339,10.9
1240,133,1,74,98.4,0,33573,6.6,211536,155889,10.9
1250,134,1,74,98.4,0,37669,6.6,211176,155513,10.9
1260,135,1,74,98.4,0,41722,6.6,210950,155151,10.9
1270,136,1,74,98.4,0,45606,6.6,210671,154847,10.9
1280,137,1,74,98.4,0,49217,6.6,210494,154556,10.9
1290,138,1,74,98.4,0,52476,6.6,210367,154321,10.9
1300,139,1,74,98.4,0,55324,6.6,210165,154218,10.9
1310,140,1,74,98.4,0,57730,6.6,210202,154217,10.9
1320,141,1,74,98.4,0,59677,6.6,210327,154398,10.9
1330,142,1,74,98.4,0,61176,6.6,210557,154645,10.9
1340,143,1,74,98.4,0,62236,6.6,210881,155068,10.9
1350,144,1,74,98.4,0,62258,6.6,211205,155492,10.9
1360,145,1,74,98.4,0,62258,6.6,211629,156052,10.9
1370,146,1,74,98.4,0,62194,6.6,211988,156542,10.9
1380,147,1,74,98.4,8,61830,6.6,212323,156963,10.9
1390,148,1,74,98.4,0,61207,6.6,212655,157380,10.9
1400,149,1,74,98.4,0,60359,6.6,212930,157741,10.9
1410,150,1,74,98.4,0,59326,6.6,213203,158056,10.9
1420,151,1,74,98.4,0,58141,6.6,213390,158333,10.9
1430,152,1,74,98.4,0,56845,6.6,213566,158557,10.9
1440,153,1,74,98.4,0,55466,6.6,213754,158842,10.9
1450,154,1,74,98.4,0,54048,6.3,214009,159022,10.9
1460,155,1,74,98.4,0,52611,6.3,214162,159361,10.9
1470,156,1,74,98.4,0,51199,6.3,214387,159647,10.9
1480,157,1,74,98.4,0,49826,6.3,214641,159946,10.9
1490,158,1,74,98.4,0,48506,6.3,214846,160282,10.9
1500,159,1,74,98.4,0,47265,6.3,215121,160622,10.9
1510,160,1,74,98.4,0,46096,6.3,215405,160967,10.9
1520,161,1,74,98.4,0,45000,6.3,215639,161324,10.9
1530,162,1,74,98.4,0,43972,6.3,215990,161754,10.9
1540,163,1,74,98.4,0,43007,6.3,216335,162197,10.9
1550,164,1,74,98.4,0,42094,6.3,216663,162600,10.9
1560,165,1,74,98.4,0,41215,6.3,217067,163147,10.9
1570,166,1,74,98.4,0,40358,6.3,217463,163637,10.9
1580,167,1,74,98.4,0,39509,6.3,217805,164137,10.9
1590,168,1,74,98.4,0,38653,6.3,218163,164655,10.9
1600,169,1,74,98.4,0,37765,6.3,218617,165167,10.9
1610,170,1,74,98.4,0,36848,6.3,219038,165748,10.9
1620,171,1,74,98.4,0,35884,6.3,219432,166254,10.9
1630,172,1,74,98.4,0,34870,6.3,219828,166749,10.9
1640,173,1,74,98.4,0,33803,6.3,220216,167281,10.9
1650,174,1,74,98.4,0,32681,6.3,220589,167730,10.9
1660,175,1,74,98.4,0,31509,6.3,220898,168253,10.9
1670,176,1,74,98.4,0,30297,6.3,221347,168772,10.9
1680,177,1,74,98.4,0,29045,6.3,221681,169200,10.9
1690,178,1,74,98.4,0,27774,6.3,222000,169621,10.9
1700,179,1,74,98.4,0,26484,6.3,222333,170092,10.9
1710,180,1,74,98.4,0,25190,6.3,222635,170493,10.9
1720,181,1,74,98.4,0,23914,6.3,222943,170862,10.9
1730,182,1,74,98.4,0,22661,6.3,223214,171236,10.9
1740,183,1,74,98.4,0,21436,6.3,223470,171590,10.9
1750,184,1,74,98.4,0,20256,6.3,223714,171940,10.9
1760,185,1,74,98.4,0,19125,6.3,223988,172312,10.9
1770,186,1,74,98.4,0,18055,6.3,224221,172600,10.9
1780,187,1,74,98.4,0,17040,6.3,224458,172898,10.9
1790,188,1,74,98.4,0,16097,6.3,224644,173162,10.9
1800,189,1,74,98.4,0,15216,6.3,224882,173450,10.9
1810,190,1,74,98.4,0,14401,6.3,225103,173786,10.9
1820,191,1,74,98.4,0,13658,6.3,225331,174102,10.9
1830,192,1,74,98.4,0,12973,6.3,225544,174347,10.9
1840,193,1,74,98.4,0,12354,6.3,225757,174680,10.9
1850,194,1,74,98.4,0,11788,6.3,225971,174954,10.9
1860,195,1,74,98.4,0,11268,6.3,226193,175240,10.9
1870,196,1,74,98.4,0,10785,6.3,226392,175486,10.9
1880,197,1,74,98.4,0,10338,6.3,226576,175780,10.9
1890,198,1,74,98.4,0,9918,6.3,226749,175964,10.9
1900,199,1,74,98.4,0,9523,6.3,226782,176062,10.9
1910,200,1,74,98.4,0,9150,6.3,226768,176009,10.9
1920,201,1,74,98.4,0,8798,6.3,226381,175454,10.9
1930,202,1,74,98.4,0,8478,6.3,225305,173890,10.9
1940,203,1,74,98.4,0,8214,6.3,223563,171510,10.9
1950,204,1,74,98.4,0,8061,6.3,221327,168641,10.9
1960,205,1,74,98.4,0,8084,6.3,219219,166004,10.9
1970,206,1,74,98.4,0,8388,6.3,217581,163944,10.9
1980,207,1,74,98.4,0,9067,6.3,216328,162352,10.9
1990,208,1,74,98.4,0,10214,6.3,215424,161165,10.9
2000,209,1,74,98.4,0,11892,6.3,214736,160224,10.9
2010,210,1,74,98.4,0,14122,6.3,214113,159448,10.9
2020,211,1,74,98.4,0,16901,6.3,213674,158812,10.9
2030,212,1,74,98.4,0,20168,6.3,213219,158281,10.9
2040,213,1,74,98.4,0,23849,6.3,212872,157813,10.9
2050,214,1,74,98.4,0,27831,6.3,212519,157385,10.9
2060,215,1,74,98.4,0,31995,6.3,212234,157028,10.9
2070,216,1,74,98.4,0,36199,6.3,212013,156751,10.9
2080,217,1,74,98.4,0,40323,6.3,211795,156449,10.9
2090,218,1,74,98.4,0,44239,6.3,211616,156226,10.9
2100,219,1,74,98.4,0,47850,6.3,211453,156044,10.9
2110,220,1,74,98.4,0,51073,6.3,211390,155956,10.9
2120,221,1,74,98.4,0,53846,6.3,211385,155959,10.9
2130,222,1,74,98.4,0,56148,6.3,211446,156064,10.9
2140,223,1,74,98.4,0,57962,6.3,211704,156353,10.9
2150,224,1,74,98.4,0,59297,6.3,211993,156770,10.9
2160,225,1,74,98.4,0,60170,6.3,212402,157229,10.9
2170,226,1,74,98.4,0,60613,6.3,212773,157776,10.9
2180,227,1,74,98.4,0,60664,6.3,213126,158252,10.9
2190,228,1,74,98.4,8,60360,6.3,213547,158726,10.9
2200,229,1,74,98.4,0,59734,6.3,213874,159140,10.9
2210,230,1,74,98.4,0,58843,6.3,214073,159468,10.9
2220,231,1,74,98.4,0,57732,6.3,214273,159767,10.9
2230,232,1,74,98.4,0,56441,6.3,214548,160004,10.9
2240,233,1,74,98.4,0,55024,6.3,214716,160171,10.9
2250,234,1,74,98.4,0,53523,6.3,214829,160401,10.9
2260,235,1,74,98.4,0,51974,6.3,215003,160617,10.9
2270,236,1,74,98.4,0,50431,6.3,215150,160832,10.9
2280,237,1,74,98.4,0,48918,6.3,215348,161009,10.9
2290,238,1,74,98.4,0,47474,6.3,215502,161216,10.9
2300,239,1,74,98.4,0,46108,6.3,215652,161546,10.9
2310,240,1,74,98.4,0,44842,6.3,215917,161833,10.9
2320,241,1,74,98.4,0,43680,6.3,216137,162123,10.9
2330,242,1,74,98.4,0,42629,6.3,216353,162454,10.9
2340,243,1,74,98.4,0,41678,6.3,216660,162826,10.9
2350,244,1,74,98.4,0,40804,6.3,216963,163207,10.9
2360,245,1,74,98.4,0,40004,6.3,217282,163663,10.9
2370,246,1,74,98.4,0,39256,6.3,217590,164090,10.9
2380,247,1,74,98.4,0,38538,6.3,217926,164509,10.9
2390,248,1,74,98.4,0,37824,6.3,218259,164983,10.9
2400,249,1,74,98.4,0,37102,6.3,218624,165459,10.9
2410,250,1,74,98.4,0,36350,6.3,218996,165929,10.9
2420,251,1,74,98.4,0,35553,6.3,219383,166455,10.9
2430,252,1,74,98.4,0,34693,6.3,219772,166929,10.9
2440,253,1,74,98.4,0,33770,6.3,220103,167439,10.9
2450,254,1,74,98.4,0,32783,6.3,220502,167912,10.9
2460,255,1,74,98.4,0,31727,6.3,220878,168378,10.9
2470,256,1,74,98.4,0,30607,6.3,221200,168827,10.9
2480,257,1,74,98.4,0,29428,6.3,221569,169273,10.9
2490,258,1,74,98.4,0,28201,6.3,221860,169710,10.9
2500,259,1,74,98.4,0,26937,6.3,222231,170134,10.9
2510,260,1,74,98.4,0,25648,6.3,222462,170493,10.9
2520,261,1,74,98.4,0,24349,6.3,222765,170835,10.9
2530,262,1,74,98.4,0,23065,6.3,223002,171222,10.9
2540,263,1,74,98.4,0,21801,6.3,223306,171559,10.9
2550,264,1,74,98.4,0,20561,6.3,223543,171890,10.9
2560,265,1,74,98.4,0,19376,6.3,223801,172226,10.9
2570,266,1,74,98.4,0,18245,6.3,224023,172515,10.9
2580,267,1,74,98.4,0,17168,6.3,224214,172822,10.9
2590,268,1,74,98.4,0,16168,6.3,224470,173133,10.9
2600,269,1,74,98.4,0,15229,6.3,224689,173404,10.9
2610,270,1,74,98.4,0,14363,6.3,224853,173668,10.9
2620,271,1,74,98.4,0,13568,6.3,225096,173946,10.9
2630,272,1,74,98.4,0,12846,6.3,225330,174245,10.9
2640,273,1,74,98.4,0,12180,6.3,225526,174511,10.9
2650,274,1,74,98.4,0,11570,6.3,225767,174763,10.9
2660,275,1,74,98.4,0,11016,6.3,225937,175061,10.9
2670,276,1,74,98.4,0,10507,6.3,226171,175353,10.9
2680,277,1,74,98.4,0,10037,6.3,226271,175537,10.9
2690,278,1,74,98.4,0,9596,6.3,226343,175669,10.9
2700,279,1,74,98.4,0,9177,6.3,226321,175574,10.9
2710,280,1,74,98.4,0,8787,6.3,226029,175103,10.9
2720,281,1,74,98.4,0,8430,6.3,225037,173726,10.9
2730,282,1,74,98.4,0,8131,6.3,223368,171399,10.9
2740,283,1,74,98.4,0,7943,6.3,221154,168499,10.9
2750,284,1,74,98.4,0,7941,6.3,218921,165764,10.9
2760,285,1,74,98.4,0,8225,6.3,217140,163586,10.9
2770,286,1,74,98.4,0,8907,6.3,215850,161932,10.9
2780,287,1,74,98.4,0,10083,6.3,214843,160653,10.9
2790,288,1,74,98.4,0,11831,6.3,214056,159614,10.9
2800,289,1,74,98.4,0,14181,6.3,213401,158801,10.9
2810,290,1,74,98.4,0,17128,6.3,212877,158115,10.9
2820,291,1,74,98.4,0,20624,6.3,212455,157509,10.9
2830,292,1,74,98.4,0,24584,6.3,212008,157006,10.9
2840,293,1,74,98.4,0,28886,6.3,211687,156579,10.9
2850,294,1,74,98.4,0,33413,6.3,211341,156165,10.9
2860,295,1,74,98.4,0,38013,6.3,211093,155800,10.9
2870,296,1,74,98.4,0,42540,6.3,210827,155512,10.9
2880,297,1,74,98.4,0,46871,6.3,210604,155246,10.9
2890,298,1,74,98.4,0,50876,6.3,210498,155004,10.9
2900,299,1,74,98.4,0,54472,6.3,210307,154849,10.9
2910,300,1,74,98.4,0,57593,6.3,210298,154782,10.9
2920,301,1,74,98.4,0,60209,6.3,210291,154842,10.9
2930,302,1,74,98.4,0,62258,6.3,210411,155018,11.4
2940,303,1,74,98.4,0,62258,6.3,210668,155349,11.4
4680,477,1,74,98.4,0,52006,6.3,216688,163444,11.4
4690,478,1,74,98.4,0,50168,6.3,216909,163704,11.4
4700,479,1,74,98.4,0,48329,6.3,217121,163971,11.4
4710,480,1,74,98.4,0,46529,6.3,217320,164249,11.4
4720,481,1,74,98.4,0,44803,6.3,217527,164543,11.4
4730,482,1,74,98.4,0,43185,6.3,217782,164837,11.4
4740,483,1,74,98.4,0,41675,6.3,218021,165170,11.4
4750,484,1,74,98.4,0,40286,6.3,218344,165527,11.4
4760,485,1,74,98.4,0,39016,6.3,218578,165880,11.4
4770,486,1,74,98.4,0,37860,6.3,218868,166289,11.4
4780,487,1,74,98.4,0,36807,6.3,219195,166715,11.4
4790,488,1,74,98.4,0,35839,6.3,219526,167149,11.4
4800,489,1,74,98.4,0,34927,6.3,219886,167619,11.4
4810,490,1,74,98.4,0,34066,6.3,220225,168063,11.4
4820,491,1,74,98.4,0,33219,6.3,220623,168589,11.4
4830,492,1,74,98.4,0,32362,6.3,221000,169074,11.4
4840,493,1,74,98.4,0,31479,6.3,221354,169541,11.4
4850,494,1,74,98.4,0,30562,6.3,221752,170057,11.4
4860,495,1,74,98.4,0,29582,6.3,222163,170575,11.4
4870,496,1,74,98.4,0,28545,6.3,222500,171040,11.4
4880,497,1,74,98.4,0,27445,6.3,222877,171505,11.4
4890,498,1,74,98.4,0,26282,6.3,223216,171924,11.4
4900,499,1,74,98.4,0,25061,6.3,223506,172340,11.4
4910,500,1,74,98.4,0,23789,6.3,223792,172707,11.4
4920,501,1,74,98.4,0,22484,6.3,224138,173080,11.4
4930,502,1,74,98.4,0,21153,6.3,224364,173447,11.4
4940,503,1,74,98.4,0,19814,6.3,224627,173789,11.4
4950,504,1,74,98.4,0,18491,6.3,224928,174116,11.4
4960,505,1,74,98.4,0,17185,6.3,225157,174404,11.4
4970,506,1,74,98.4,0,15926,6.3,225354,174700,11.4
4980,507,1,74,98.4,0,14721,6.3,225572,174954,11.4
4990,508,1,74,98.4,0,13583,6.3,225748,175247,11.4
5000,509,1,74,98.4,0,12524,6.3,226013,175532,11.4
5010,510,1,74,98.4,0,11550,6.3,226180,175769,11.4
5020,511,1,74,98.4,0,10662,6.3,226418,176043,11.4
5030,512,1,74,98.4,0,9860,6.3,226551,176336,11.4
5040,513,1,74,98.4,0,9143,6.3,226766,176596,11.4
5050,514,1,74,98.4,0,8500,6.3,226895,176823,11.4
5060,515,1,74,98.4,0,7925,6.3,227154,177091,11.4
5070,516,1,74,98.4,0,7417,6.3,227302,177335,11.4
5080,517,1,74,98.4,0,6959,6.3,227573,177607,11.4
5090,518,1,74,98.4,0,6544,6.3,227782,177888,11.4
5100,519,1,74,98.4,0,6160,6.3,227988,178144,11.4
5110,520,1,74,98.4,0,5807,6.3,228135,178359,11.4
5120,521,1,74,98.4,0,5473,6.3,228185,178503,11.4
5130,522,1,74,98.4,0,5151,6.3,228342,178571,11.4
5140,523,1,74,98.4,0,4836,6.3,228240,178488,11.4
5150,524,1,74,98.4,0,4547,6.3,227891,177933,11.4
5160,525,1,74,98.4,0,4276,6.3,226826,176449,11.4
5170,526,1,74,98.4,0,4066,6.3,225044,174058,11.4
5180,527,1,74,98.4,0,3973,6.3,222848,171178,11.4
5190,528,1,74,98.4,0,4076,6.3,220630,168485,11.4
5200,529,1,74,98.4,0,4495,6.3,218851,166309,11.4
5210,530,1,74,98.4,0,5348,6.3,217643,164712,11.4
5220,531,1,74,98.4,0,6743,6.3,216698,163538,11.4
5230,532,1,74,98.4,0,8759,6.3,215945,162610,11.4
5240,533,1,74,98.4,0,11422,6.3,215382,161904,11.4
5250,534,1,74,98.4,0,14721,6.3,214919,161274,11.4
5260,535,1,74,98.4,0,18597,6.3,214500,160768,11.4
5270,536,1,74,98.4,0,22944,6.3,214182,160329,11.4
5280,537,1,74,98.4,0,27645,6.3,213874,159943,11.4
5290,538,1,74,98.4,0,32539,6.3,213607,159611,11.4
5300,539,1,74,98.4,0,37482,6.3,213368,159313,11.4
5310,540,1,74,98.4,0,42309,6.3,213161,159095,11.4
5320,541,1,74,98.4,0,46885,6.3,213063,158899,11.4
5330,542,1,74,98.4,0,51083,6.3,212945,158790,11.4
5340,543,1,74,98.4,0,54810,6.3,212894,158707,11.4
5350,544,1,74,98.4,0,58003,6.3,212922,158736,11.4
5360,545,1,74,98.4,0,60617,6.3,213009,158867,11.4
5370,546,1,74,98.4,0,62258,6.3,213226,159156,11.4
5380,547,1,74,98.4,0,62258,6.3,213566,159524,11.4
5390,548,1,74,98.4,0,62258,6.3,213925,160026,11.4
5400,549,1,74,98.4,0,62258,6.3,214339,160536,11.4
5410,550,1,74,98.4,0,62202,6.3,214709,161018,11.4
5420,551,1,74,98.4,8,61789,6.3,215038,161410,11.4
5430,552,1,74,98.4,0,61047,6.3,215356,161802,11.4
5440,553,1,74,98.4,0,60038,6.3,215629,162163,11.4
5450,554,1,74,98.4,0,58813,6.3,215855,162437,11.4
5460,555,1,74,98.4,0,57411,6.3,216061,162655,11.4
5470,556,1,74,98.4,0,55887,6.3,216246,162900,11.4
5480,557,1,74,98.4,0,54292,6.3,216402,163119,11.4
5490,558,1,74,98.4,0,52668,6.3,216591,163349,11.4
5500,559,1,74,98.4,0,51056,6.3,216682,163576,11.4
5510,560,1,74,98.4,0,49483,6.3,216911,163812,11.4
5520,561,1,74,98.4,0,47987,6.3,217051,164091,11.4
5530,562,1,74,98.4,0,46580,6.3,217336,164330,11.4
5540,563,1,74,98.4,0,45273,6.3,217487,164654,11.4
5550,564,1,74,98.4,0,44070,6.3,217797,165004,11.4
5560,565,1,74,98.4,0,42967,6.3,218106,165367,11.4
5570,566,1,74,98.4,0,41963,6.3,218440,165724,11.4
5580,567,1,74,98.4,0,41037,6.3,218694,166085,11.4
5590,568,1,74,98.4,0,40170,6.3,219000,166570,11.4
5600,569,1,74,98.4,0,39353,6.3,219348,167032,11.4
5610,570,1,74,98.4,0,38556,6.3,219731,167493,11.4
5620,571,1,74,98.4,0,37756,6.3,220102,167950,11.4
5630,572,1,74,98.4,0,36937,6.3,220448,168430,11.4
5640,573,1,74,98.4,0,36087,6.3,220770,168896,11.4
5650,574,1,74,98.4,0,35183,6.3,221147,169401,11.4
5660,575,1,74,98.4,0,34230,6.3,221569,169896,11.4
5670,576,1,74,98.4,0,33204,6.3,221974,170386,11.4
5680,577,1,74,98.4,0,32111,6.3,222313,170875,11.4
5690,578,1,74,98.4,0,30955,6.3,222657,171326,11.4
5700,579,1,74,98.4,0,29738,6.3,223002,171725,11.4
5710,580,1,74,98.4,0,28471,6.3,223330,172140,11.4
5720,581,1,74,98.4,0,27171,6.3,223621,172588,11.4
5730,582,1,74,98.4,0,25832,6.3,223960,173004,11.4
5740,583,1,74,98.4,0,24484,6.3,224205,173383,11.4
5750,584,1,74,98.4,0,23133,6.3,224535,173734,11.4
5760,585,1,74,98.4,0,21809,6.3,224774,174061,11.4
5770,586,1,74,98.4,0,20500,6.3,225058,174414,11.4
5780,587,1,74,98.4,0,19236,6.3,225231,174678,11.4
5790,588,1,74,98.4,0,18028,6.3,225490,174997,11.4
5800,589,1,74,98.4,0,16878,6.3,225672,175307,11.4
5810,590,1,74,98.4,0,15798,6.3,225898,175572,11.4
5820,591,1,74,98.4,0,14787,6.3,226151,175864,11.4
5830,592,1,74,98.4,0,13858,6.3,226345,176139,11.4
5840,593,1,74,98.4,0,13000,6.3,226555,176410,11.4
5850,594,1,74,98.4,0,12218,6.3,226777,176687,11.4
5860,595,1,74,98.4,0,11506,6.3,226954,176927,11.4
5870,596,1,74,98.4,0,10854,6.3,227151,177193,11.4
5880,597,1,74,98.4,0,10260,6.3,227320,177375,11.4
5890,598,1,74,98.4,0,9726,6.3,227550,177671,11.4
5900,599,1,74,98.4,0,9233,6.3,227710,177928,11.4
5910,600,1,74,98.4,0,8782,6.3,227909,178186,11.4
5920,601,1,74,98.4,0,8361,6.3,228160,178434,11.4
5930,602,1,74,98.3,0,7976,6.3,228303,178644,11.4
5940,603,1,74,98.3,0,7614,6.3,228460,178799,11.4
5950,604,1,74,98.3,0,7259,6.3,228571,178967,11.4
5960,605,1,74,98.3,0,6934,6.3,228572,178977,11.4
5970,606,1,74,98.3,0,6615,6.3,228348,178676,11.4
5980,607,1,74,98.3,0,6320,6.3,227728,177677,11.4
5990,608,1,74,98.3,0,6073,6.3,226259,175669,11.4
6000,609,1,74,98.3,0,5903,6.3,224155,172982,11.4
6010,610,1,74,98.3,0,5892,6.3,221908,170164,11.4
6020,611,1,74,98.3,0,6135,6.3,220033,167837,11.4
6030,612,1,74,98.3,0,6744,6.3,218602,166050,11.4
6040,613,1,74,98.3,0,7824,6.3,217539,164676,11.4
6050,614,1,74,98.3,0,9459,6.3,216742,163641,11.4
6060,615,1,74,98.3,0,11708,6.3,216087,162842,11.4
6070,616,1,74,98.3,0,14572,6.3,215533,162096,11.4
6080,617,1,74,98.3,0,18023,6.3,215085,161502,11.4
6090,618,1,74,98.3,0,21964,6.3,214731,161014,11.4
6100,619,1,74,98.3,0,26300,6.3,214332,160565,11.4
6110,620,1,74,98.3,0,30897,6.3,214057,160232,11.4
6120,621,1,74,98.3,0,35619,6.3,213818,159912,11.4
6130,622,1,74,98.3,0,40308,6.3,213636,159635,11.4
6140,623,1,74,98.3,0,44822,6.3,213425,159422,11.4
6150,624,1,74,98.3,0,49044,6.3,213304,159240,11.4
6160,625,1,74,98.3,0,52855,6.3,213216,159128,11.4
6170,626,1,74,98.3,0,56179,6.3,213118,159073,11.4
6180,627,1,74,98.3,0,58980,6.3,213200,159068,11.4
6190,628,1,74,98.3,0,61238,6.3,213304,159291,11.4
6200,629,1,74,98.3,0,62258,6.3,213538,159597,11.4
6210,630,1,74,98.3,0,62258,6.3,213813,159954,11.4
6220,631,1,74,98.3,0,62258,6.3,214222,160443,11.4
6230,632,1,74,98.3,0,62252,6.3,214609,160926,11.4
6240,633,1,74,98.3,0,62077,6.3,214992,161437,11.4
6250,634,1,74,98.3,8,61563,6.3,215295,161851,11.4
6260,635,1,74,98.3,0,60759,6.3,215640,162250,11.4
6270,636,1,74,98.3,0,59722,6.3,215882,162582,11.4
6280,637,1,74,98.3,0,58483,6.3,216159,162896,11.4
6290,638,1,74,98.3,0,57092,6.3,216331,163197,11.4
6300,639,1,74,98.3,0,55599,6.3,216569,163472,11.4
6310,640,1,74,98.3,0,54046,6.3,216805,163741,11.4
6320,641,1,74,98.3,0,52466,6.3,217022,164008,11.4
6330,642,1,74,98.3,0,50891,6.3,217184,164250,11.4
6340,643,1,74,98.3,0,49349,6.3,217396,164526,11.4
6350,644,1,74,98.3,0,47866,6.3,217642,164847,11.4
6360,645,1,74,98.3,0,46465,6.3,217903,165152,11.4
6370,646,1,74,98.3,0,45144,6.3,218119,165504,11.4
6380,647,1,74,98.3,0,43904,6.3,218403,165853,11.4
6390,648,1,74,98.3,0,42757,6.3,218710,166265,11.4
6400,649,1,74,98.3,0,41684,6.3,219041,166667,11.4
6410,650,1,74,98.3,0,40681,6.3,219360,167102,11.4
6420,651,1,74,98.3,0,39726,6.3,219693,167532,11.4
6430,652,1,74,98.3,0,38813,6.3,220073,167999,11.4
6440,653,1,74,98.3,0,37919,6.3,220467,168504,11.4
6450,654,1,74,98.3,0,37023,6.3,220836,168990,11.4
6460,655,1,74,98.3,0,36113,6.3,221201,169446,11.4
6470,656,1,74,98.3,0,35172,6.3,221586,169968,11.4
6480,657,1,74,98.3,0,34193,6.3,221968,170459,11.4
6490,658,1,74,98.3,0,33166,6.3,222297,170937,11.4
6500,659,1,74,98.3,0,32090,6.3,222667,171404,11.4
6510,660,1,74,98.3,0,30960,6.3,223036,171886,11.4
6520,661,1,74,98.3,0,29774,6.3,223390,172316,11.4
6530,662,1,74,98.3,0,28544,6.3,223707,172749,11.4
6540,663,1,74,98.3,0,27271,6.3,224054,173173,11.4
6550,664,1,74,98.3,0,25978,6.3,224326,173557,11.4
6560,665,1,74,98.3,0,24669,6.3,224637,173864,11.4
6570,666,1,74,98.3,0,23364,6.3,224861,174271,11.4
6580,667,1,74,98.3,0,22067,6.3,225074,174597,11.4
6590,668,1,74,98.3,0,20796,6.3,225386,174922,11.4
6600,669,1,74,98.3,0,19564,6.3,225593,175201,11.4
6610,670,1,74,98.3,0,18382,6.3,225811,175508,11.4
6620,671,1,74,98.3,0,17261,6.3,226048,175776,11.4
6630,672,1,74,98.3,0,16208,6.3,226252,176068,11.4
6640,673,1,74,98.3,0,15236,6.3,226463,176337,11.4
6650,674,1,74,98.3,0,14331,6.3,226663,176604,11.4
6660,675,1,74,98.3,0,13507,6.3,226895,176876,11.4
6670,676,1,74,98.3,0,12752,6.3,227101,177161,11.4
6680,677,1,74,98.3,0,12072,6.3,227276,177401,11.4
6690,678,1,74,98.3,0,11455,6.3,227509,177689,11.4
6700,679,1,74,98.3,0,10896,6.3,227679,177959,11.4
6710,680,1,74,98.3,0,10384,6.3,227826,178153,11.4
6720,681,1,74,98.3,0,9918,6.3,228032,178421,11.4
6730,682,1,74,98.3,0,9492,6.3,228221,178661,11.4
6740,683,1,74,98.3,0,9096,6.3,228426,178909,11.4
6750,684,1,74,98.3,0,8717,6.3,228550,179101,11.4
6760,685,1,74,98.3,0,8362,6.3,228713,179284,11.4
6770,686,1,74,98.3,0,8025,6.3,228784,179412,11.4
6780,687,1,74,98.3,0,7699,6.3,228664,179297,11.4
6790,688,1,74,98.3,0,7391,6.3,228407,178878,11.4
6800,689,1,74,98.3,0,7112,6.3,227564,177625,11.4
6810,690,1,74,98.3,0,6880,6.3,225956,175489,11.4
6820,691,1,74,98.3,0,6747,6.3,223871,172792,11.4
6830,692,1,74,98.3,0,6793,6.3,221737,170196,11.4
6840,693,1,74,98.3,0,7111,6.3,220078,168084,11.4
6850,694,1,74,98.3,0,7804,6.3,218832,166514,11.4
6860,695,1,74,98.3,0,8972,6.3,217723,165308,11.4
6870,696,1,74,98.3,0,10689,6.3,217135,164398,11.4
6880,697,1,74,98.3,0,12991,6.3,216574,163686,11.4
6890,698,1,74,98.3,0,15862,6.3,216105,163097,11.4
6900,699,1,74,98.3,0,19263,6.3,215786,162597,11.4
6910,700,1,74,98.3,0,23110,6.3,215448,162225,11.4
6920,701,1,74,98.3,0,27281,6.3,215171,161829,11.4
6930,702,1,74,98.3,0,31657,6.3,214951,161573,11.4
6940,703,1,74,98.3,0,36096,6.3,214786,161343,11.4
6950,704,1,74,98.3,0,40456,6.3,214602,161135,11.4
6960,705,1,74,98.3,0,44596,6.3,214412,161005,11.4
6970,706,1,74,98.3,0,48408,6.3,214379,160902,11.4
6980,707,1,74,98.3,0,51799,6.3,214404,160869,11.4
6990,708,1,74,98.3,0,54715,6.3,214505,160973,11.4
7000,709,1,74,98.3,0,57100,6.3,214608,161186,11.4
7010,710,1,74,98.3,0,58954,6.3,214883,161474,11.4
7020,711,1,74,98.3,0,60277,6.3,215165,161922,11.4
7030,712,1,74,98.3,0,61092,6.3,215540,162395,11.4
7040,713,1,74,98.3,0,61429,6.3,215929,162907,11.4
7050,714,1,74,98.3,0,61330,6.3,216443,163479,11.4
7060,715,1,74,98.3,8,60844,6.3,216795,163935,11.4
7070,716,1,74,98.3,0,60018,6.3,217119,164334,11.4
7080,717,1,74,98.3,0,58898,6.3,217391,164689,11.4
7090,718,1,74,98.3,0,57551,6.3,217671,165020,11.4
7100,719,1,74,98.3,0,56011,6.3,217853,165269,11.4
7110,720,1,74,98.3,0,54342,6.3,218072,165551,11.4
7120,721,1,74,98.3,0,52597,6.3,218256,165800,11.4
7130,722,1,74,98.3,0,50823,6.3,218400,166025,11.4
7140,723,1,74,98.3,0,49054,6.3,218623,166254,11.4
7150,724,1,74,98.3,0,47336,6.3,218775,166532,11.4
7160,725,1,74,98.3,0,45694,6.3,219028,166841,11.4
7170,726,1,74,98.3,0,44150,6.3,219225,167096,11.4
7180,727,1,74,98.3,0,42722,6.3,219489,167420,11.4
7190,728,1,74,98.3,0,41410,6.3,219733,167756,11.4
7200,729,1,74,98.3,0,40209,6.3,220029,168123,11.4
7210,730,1,74,98.3,0,39117,6.3,220281,168528,11.4
7220,731,1,74,98.3,0,38118,6.3,220646,168943,11.4
7230,732,1,74,98.3,0,37188,6.3,220971,169382,11.4
7240,733,1,74,98.3,0,36314,6.3,221307,169815,11.4
7250,734,1,74,98.3,0,35468,6.3,221628,170290,11.4
7260,735,1,74,98.3,0,34631,6.3,222023,170756,11.4
7270,736,1,74,98.3,0,33779,6.3,222354,171230,11.4
7280,737,1,74,98.3,0,32894,6.3,222749,171718,11.4
7290,738,1,74,98.3,0,31962,6.3,223114,172192,11.4
7300,739,1,74,98.3,0,30979,6.3,223475,172642,11.4
7310,740,1,74,98.3,0,29932,6.3,223795,173042,11.4
7320,741,1,74,98.3,0,28820,6.3,224109,173456,11.4
7330,742,1,74,98.3,0,27650,6.3,224442,173860,11.4
7340,743,1,74,98.3,0,26427,6.3,224729,174237,11.4
7350,744,1,74,98.3,0,25171,6.3,225035,174598,11.4
7360,745,1,74,98.3,0,23875,6.3,225266,174900,11.4
7370,746,1,74,98.3,0,22570,6.3,225471,175232,11.4
7380,747,1,74,98.3,0,21270,6.3,225732,175581,11.4
7390,748,1,74,98.3,0,19985,6.3,225936,175863,11.4
7400,749,1,74,98.3,0,18741,6.3,226170,176151,11.4
7410,750,1,74,98.3,0,17552,6.3,226424,176443,11.4
7420,751,1,74,98.3,0,16423,6.3,226606,176687,11.4
7430,752,1,74,98.3,0,15362,6.3,226821,176949,11.4
7440,753,1,74,98.3,0,14379,6.3,227015,177208,11.4
7450,754,1,74,98.3,0,13477,6.3,227249,177470,11.4
7460,755,1,74,98.3,0,12656,6.3,227395,177711,11.4
7470,756,1,74,98.3,0,11908,6.3,227499,177955,11.4
7480,757,1,74,98.3,0,11235,6.3,227769,178226,11.4
7490,758,1,74,98.3,0,10630,6.3,227923,178419,11.4
7500,759,1,74,98.3,0,10087,6.3,228110,178726,11.4
7510,760,1,74,98.3,0,9594,6.3,228359,178962,11.4
7520,761,1,74,98.3,0,9144,6.3,228546,179206,11.4
7530,762,1,74,98.3,0,8733,6.3,228719,179449,11.4
7540,763,1,74,98.3,0,8346,6.3,228878,179653,11.4
7550,764,1,74,98.3,0,7984,6.3,228933,179744,11.4
7560,765,1,74,98.3,0,7630,6.3,228956,179751,11.4
7570,766,1,74,98.3,0,7294,6.3,228811,179575,11.4
7580,767,1,74,98.3,0,6983,6.3,228342,178823,11.4
7590,768,1,74,98.3,0,6716,6.3,227048,177051,11.4
7600,769,1,74,98.3,0,6518,6.3,225118,174516,11.4
7610,770,1,74,98.3,0,6462,6.3,222901,171787,11.4
7620,771,1,74,98.3,0,6643,6.3,220860,169283,11.4
7630,772,1,74,98.3,0,7158,6.3,219397,167453,11.4
7640,773,1,74,98.3,0,8145,6.3,218314,166063,11.4
7650,774,1,74,98.3,0,9690,6.3,217409,164986,11.4
7660,775,1,74,98.3,0,11850,6.3,216797,164177,11.4
7670,776,1,74,98.3,0,14638,6.3,216304,163528,11.4
7680,777,1,74,98.3,0,18037,6.3,215847,162973,11.4
7690,778,1,74,98.3,0,21976,6.3,215495,162498,11.4
7700,779,1,74,98.3,0,26342,6.3,215201,162124,11.4
7710,780,1,74,98.3,0,30995,6.3,214934,161798,11.4
7720,781,1,74,98.3,0,35797,6.3,214741,161488,11.4
7730,782,1,74,98.3,0,40589,6.3,214511,161257,11.4
7740,783,1,74,98.3,0,45216,6.3,214366,161071,11.4
7750,784,1,74,98.3,0,49547,6.3,214247,160911,11.4
7760,785,1,74,98.3,0,53477,6.3,214171,160784,11.4
7770,786,1,74,98.3,0,56908,6.3,214184,160852,11.4
7780,787,1,74,98.3,0,59794,6.3,214253,160960,11.4
7790,788,1,74,98.3,0,62109,6.3,214434,161201,11.4
7800,789,1,74,98.3,0,62258,6.3,214742,161563,11.4
7810,790,1,74,98.3,0,62258,6.3,215105,161960,11.4
7820,791,1,74,98.3,0,62258,6.3,215469,162436,11.4
7830,792,1,74,98.3,0,62258,6.3,215836,162921,11.4
7840,793,1,74,98.3,8,62011,6.3,216219,163388,11.4
7850,794,1,74,98.3,0,61416,6.3,216546,163808,11.4
7860,795,1,74,98.3,0,60519,6.3,216786,164052,11.4
7870,796,1,74,98.3,0,59366,6.3,217020,164418,11.4
7880,797,1,74,98.3,0,58023,6.3,217234,164688,11.4
7890,798,1,74,98.3,0,56541,6.3,217418,164939,11.4
7900,799,1,74,98.3,0,54959,6.3,217590,165143,11.4
7910,800,1,74,98.3,0,53332,6.3,217785,165356,11.4
7920,801,1,74,98.3,0,51700,6.3,217932,165584,11.4
7930,802,1,74,98.2,0,50102,6.3,218088,165805,11.4
7940,803,1,74,98.2,0,48559,6.3,218234,166000,11.4
7950,804,1,74,98.2,0,47106,6.3,218474,166315,11.4
7960,805,1,74,98.2,0,45746,6.3,218688,166564,11.4
7970,806,1,74,98.2,0,44504,6.3,218934,166919,11.4
7980,807,1,74,98.2,0,43362,6.3,219189,167255,11.4
7990,808,1,74,98.2,0,42331,6.3,219479,167615,11.4
8000,809,1,74,98.2,0,41383,6.3,219830,168014,11.4
8010,810,1,74,98.2,0,40507,6.3,220095,168422,11.4
8020,811,1,74,98.2,0,39686,6.3,220454,168851,11.4
8030,812,1,74,98.2,0,38897,6.3,220757,169312,11.4
8040,813,1,74,98.2,0,38117,6.3,221131,169715,11.4
8050,814,1,74,98.2,0,37324,6.3,221485,170227,11.4
8060,815,1,74,98.2,0,36510,6.1,221861,170715,11.4
8070,816,1,74,98.2,0,35654,6.1,222224,171137,11.4
8080,817,1,74,98.2,0,34738,6.1,222559,171593,11.4
8090,818,1,74,98.2,0,33766,6.1,222945,172109,11.4
8100,819,1,74,98.2,0,32727,6.1,223296,172563,11.4
8110,820,1,74,98.2,0,31625,6.1,223646,172978,11.4
8120,821,1,74,98.2,0,30456,6.1,223993,173453,11.4
8130,822,1,74,98.2,0,29236,6.1,224309,173819,11.4
8140,823,1,74,98.2,0,27972,6.1,224535,174202,11.4
8150,824,1,74,98.2,0,26674,6.1,224842,174541,11.4
8160,825,1,74,98.2,0,25362,6.1,225100,174876,11.4
8170,826,1,74,98.2,0,24046,6.1,225366,175221,11.4
8180,827,1,74,98.2,0,22745,6.1,225584,175515,11.4
8190,828,1,74,98.2,0,21477,6.1,225818,175835,11.4
8200,829,1,74,98.2,0,20254,6.1,226025,176100,11.4
8210,830,1,74,98.2,0,19087,6.1,226249,176399,11.4
8220,831,1,74,98.2,0,17985,6.1,226463,176684,11.4
8230,832,1,74,98.2,0,16957,6.1,226650,176930,11.4
8240,833,1,74,98.2,0,16000,6.1,226824,177180,11.4
8250,834,1,74,98.2,0,15124,6.1,227095,177447,11.4
8260,835,1,74,98.2,0,14331,6.1,227229,177717,11.4
8270,836,1,74,98.2,0,13609,6.1,227468,177938,11.4
8280,837,1,74,98.2,0,12957,6.1,227674,178189,11.4
8290,838,1,74,98.2,0,12365,6.1,227821,178446,11.4
8300,839,1,74,98.2,0,11820,6.1,228031,178699,11.4
8310,840,1,74,98.2,0,11328,6.1,228198,178952,11.4
8320,841,1,74,98.2,0,10879,6.1,228375,179166,11.4
8330,842,1,74,98.2,0,10459,6.1,228556,179393,11.4
8340,843,1,74,98.2,0,10074,6.1,228681,179577,11.4
8350,844,1,74,98.2,0,9708,6.1,228798,179688,11.4
8360,845,1,74,98.2,0,9360,6.1,228812,179722,11.4
8370,846,1,74,98.2,0,9024,6.1,228628,179448,11.4
8380,847,1,74,98.2,0,8718,6.1,227937,178383,11.4
8390,848,1,74,98.2,0,8454,6.1,226460,176382,11.4
8400,849,1,74,98.2,0,8279,6.1,224333,173744,11.4
8410,850,1,74,98.2,0,8253,6.1,222188,171018,11.4
8420,851,1,74,98.2,0,8483,6.1,220313,168758,11.4
8430,852,1,74,98.2,0,9075,6.1,218921,167022,11.4
8440,853,1,74,98.2,0,10131,6.1,217897,165681,11.4
8450,854,1,74,98.2,0,11740,6.1,217130,164675,11.4
8460,855,1,74,98.2,0,13950,6.1,216474,163861,11.4
8470,856,1,74,98.2,0,16769,6.1,215947,163200,11.4
8480,857,1,74,98.2,0,20158,6.1,215548,162664,11.4
8490,858,1,74,98.2,0,24031,6.1,215191,162200,11.4
8500,859,1,74,98.2,0,28290,6.1,214860,161805,11.4
8510,860,1,74,98.2,0,32797,6.1,214598,161447,11.4
8520,861,1,74,98.2,0,37423,6.1,214344,161155,11.4
8530,862,1,74,98.2,0,42002,6.1,214196,160913,11.4
8540,863,1,74,98.2,0,46397,6.1,214034,160700,11.4
8550,864,1,74,98.2,0,50495,6.1,213950,160618,11.4
8560,865,1,74,98.2,0,54183,6.1,213852,160495,11.4
8570,866,1,74,98.2,0,57394,6.1,213844,160489,11.4
8580,867,1,74,98.2,0,60082,6.1,213926,160602,11.4
8590,868,1,74,98.2,0,62216,6.1,214072,160812,11.4
8600,869,1,74,98.2,0,62258,6.1,214350,161139,11.4
8610,870,1,74,98.2,0,62258,6.1,214701,161593,11.4
8620,871,1,74,98.2,0,62258,6.1,215105,162098,11.4
8630,872,1,74,98.2,0,62258,6.1,215488,162589,11.4
8640,873,1,74,98.2,8,61975,6.1,215861,163103,11.4
8650,874,1,74,98.2,0,61362,6.1,216214,163495,11.4
8660,875,1,74,98.2,0,60472,6.1,216553,163915,11.4
8670,876,1,74,98.2,0,59344,6.1,216791,164271,11.4
8680,877,1,74,98.2,0,58028,6.1,217060,164557,11.4
8690,878,1,74,98.2,0,56572,6.1,217264,164858,11.4
8700,879,1,74,98.2,0,55019,6.1,217460,165133,11.4
8710,880,1,74,98.2,0,53406,6.1,217683,165349,11.4
8720,881,1,74,98.2,0,51778,6.1,217911,165662,11.4
8730,882,1,74,98.2,0,50171,6.1,218103,165921,11.4
8740,883,1,74,98.2,0,48607,6.1,218313,166211,11.4
8750,884,1,74,98.2,0,47113,6.1,218559,166514,11.4
8760,885,1,74,98.2,0,45704,6.1,218803,166804,11.4
8770,886,1,74,98.2,0,44393,6.1,219081,167173,11.4
8780,887,1,74,98.2,0,43166,6.1,219350,167531,11.4
8790,888,1,74,98.2,0,42031,6.1,219649,167920,11.4
8800,889,1,74,98.2,0,40976,6.1,219995,168353,11.4
8810,890,1,74,98.2,0,39996,6.1,220305,168777,11.4
8820,891,1,74,98.2,0,39063,6.1,220668,169233,11.4
8830,892,1,74,98.2,0,38171,6.1,221032,169679,11.4
8840,893,1,74,98.2,0,37299,6.1,221400,170170,11.4
8850,894,1,74,98.2,0,36425,6.1,221771,170649,11.4
8860,895,1,74,98.2,0,35536,6.1,222132,171102,11.4
8870,896,1,74,98.2,0,34616,6.1,222510,171575,11.4
8880,897,1,74,98.2,0,33649,6.1,222870,172047,11.4
8890,898,1,74,98.2,0,32644,6.1,223246,172509,11.4
8900,899,1,74,98.2,0,31579,6.1,223575,172937,11.4
8910,900,1,74,98.2,0,30466,6.1,223929,173381,11.4
8920,901,1,74,98.2,0,29309,6.1,224177,173744,11.4
8930,902,1,74,98.2,0,28109,6.1,224456,174148,11.4
8940,903,1,74,98.2,0,26883,6.1,224773,174471,11.4
8950,904,1,74,98.2,0,25636,6.1,224986,174842,11.4
8960,905,1,74,98.2,0,24387,6.1,225262,175146,11.4
8970,906,1,74,98.2,0,23152,6.1,225490,175504,11.4
8980,907,1,74,98.2,0,21942,6.1,225726,175806,11.4
8990,908,1,74,98.2,0,20771,6.1,225984,176110,11.4
9000,909,1,74,98.2,0,19649,6.1,226162,176416,11.4
9010,910,1,74,98.2,0,18582,6.1,226402,176631,11.4
9020,911,1,74,98.2,0,17576,6.1,226584,176943,11.4
9030,912,1,74,98.2,0,16644,6.1,226850,177159,11.4
9040,913,1,74,98.2,0,15780,6.1,227049,177459,11.4
9050,914,1,74,98.2,0,14995,6.1,227248,177714,11.4
9060,915,1,74,98.2,0,14267,6.1,227431,177992,11.4
9070,916,1,74,98.2,0,13602,6.1,227590,178224,11.4
9080,917,1,74,98.2,0,13000,6.1,227783,178424,11.4
9090,918,1,74,98.2,0,12449,6.1,227978,178710,11.4
9100,919,1,74,98.2,0,11956,6.1,228158,178942,11.4
9110,920,1,74,98.2,0,11497,6.1,228323,179187,11.4
9120,921,1,74,98.2,0,11072,6.1,228541,179447,11.4
9130,922,1,74,98.2,0,10677,6.1,228703,179677,11.4
9140,923,1,74,98.2,0,10304,6.1,228872,179885,11.4
9150,924,1,74,98.2,0,9949,6.1,229005,180084,11.4
9160,925,1,74,98.2,0,9612,6.1,229128,180211,11.4
9170,926,1,74,98.2,0,9281,6.1,229107,180184,11.4
9180,927,1,74,98.2,0,8967,6.1,228908,179935,11.4
9190,928,1,74,98.2,0,8676,6.1,228330,179039,11.4
9200,929,1,74,98.2,0,8426,6.1,226872,177148,11.4
9210,930,1,74,98.2,0,8250,6.1,224999,174558,11.4
9220,931,1,74,98.2,0,8219,6.1,222742,171853,11.4
9230,932,1,74,98.2,0,8419,6.1,220862,169547,11.4
9240,933,1,74,98.2,0,8957,6.1,219428,167766,11.4
9250,934,1,74,98.2,0,9939,6.1,218355,166403,11.4
9260,935,1,74,98.2,0,11445,6.1,217575,165425,11.4
9270,936,1,74,98.2,0,13527,6.1,216960,164639,11.4
9280,937,1,74,98.2,0,16193,6.1,216508,164021,11.4
9290,938,1,74,98.2,0,19410,6.1,216141,163506,11.4
9300,939,1,74,98.2,0,23105,6.1,215783,163031,11.4
9310,940,1,74,98.2,0,27169,6.1,215462,162633,11.4
9320,941,1,74,98.2,0,31494,6.1,215215,162320,11.4
9330,942,1,74,98.2,0,35929,6.1,215034,162030,11.4
9340,943,1,74,98.2,0,40325,6.1,214828,161826,11.4
9350,944,1,74,98.2,0,44556,6.1,214713,161654,11.4
9360,945,1,74,98.2,0,48495,6.1,214639,161506,11.4
9370,946,1,74,98.2,0,52046,6.1,214559,161437,11.4
9380,947,1,74,98.2,0,55140,6.1,214597,161495,11.4
9390,948,1,74,98.2,0,57718,6.1,214745,161649,11.4
9400,949,1,74,98.2,0,59766,6.1,214961,161918,11.4
9410,950,1,74,98.2,0,61286,6.1,215303,162354,11.4
9420,951,1,74,98.2,0,62258,6.1,215642,162814,11.4
9430,952,1,74,98.2,0,62258,6.1,216031,163324,11.4
9440,953,1,74,98.2,0,62258,6.1,216427,163821,11.4
9450,954,1,74,98.2,8,61920,6.1,216793,164281,11.4
9460,955,1,74,98.2,0,61227,6.1,217084,164731,11.4
9470,956,1,74,98.2,0,60237,6.1,217389,165041,11.4
9480,957,1,74,98.2,0,58997,6.1,217595,165321,11.4
9490,958,1,74,98.2,0,57558,6.1,217791,165594,11.4
9500,959,1,74,98.2,0,55976,6.1,218001,165799,11.4
9510,960,1,74,98.2,0,54304,6.1,218146,165975,11.4
9520,961,1,74,98.2,0,52586,6.1,218318,166152,11.4
9530,962,1,74,98.2,0,50868,6.1,218446,166317,11.4
9540,963,1,74,98.2,0,49202,6.1,218606,166586,11.4
9550,964,1,74,98.2,0,47609,6.1,218787,166794,11.4
9560,965,1,74,98.2,0,46124,6.1,218960,167030,11.4
9570,966,1,74,98.2,0,44752,6.1,219149,167302,11.4
9580,967,1,74,98.2,0,43512,6.1,219389,167622,11.4
9590,968,1,74,98.2,0,42390,6.1,219618,167894,11.4
9600,969,1,74,98.2,0,41383,6.1,219861,168270,11.4
9610,970,1,74,98.2,0,40477,6.1,220162,168646,11.4
9620,971,1,74,98.2,0,39657,6.1,220498,169016,11.4
9630,972,1,74,98.2,0,38898,6.1,220742,169432,11.4
9640,973,1,74,98.2,0,38178,6.1,221072,169857,11.4
9650,974,1,74,98.2,0,37480,6.1,221453,170291,11.4
9660,975,1,74,98.2,0,36767,6.1,221758,170713,11.4
9670,976,1,74,98.2,0,36029,6.1,222097,171142,11.4
9680,977,1,74,98.2,0,35236,6.1,222444,171604,11.4
9690,978,1,74,98.2,0,34392,6.1,222808,172057,11.4
9700,979,1,74,98.2,0,33481,6.1,223114,172474,11.4
9710,980,1,74,98.2,0,32501,6.1,223460,172911,11.4
9720,981,1,74,98.2,0,31452,6.1,223747,173328,11.4
9730,982,1,74,98.2,0,30334,6.1,224067,173715,11.4
9740,983,1,74,98.2,0,29159,6.1,224357,174112,11.4
9750,984,1,74,98.2,0,27938,6.1,224662,174471,11.4
9760,985,1,74,98.2,0,26684,6.1,224936,174831,11.4
9770,986,1,74,98.2,0,25414,6.1,225169,175128,11.4
9780,987,1,74,98.2,0,24148,6.1,225411,175463,11.4
9790,988,1,74,98.2,0,22896,6.1,225682,175770,11.4
9800,989,1,74,98.2,0,21673,6.1,225877,176088,11.4
9810,990,1,74,98.2,0,20495,6.1,226140,176374,11.4
9820,991,1,74,98.2,0,19357,6.1,226342,176641,11.4
9830,992,1,74,98.2,0,18291,6.1,226558,176892,11.4
9840,993,1,74,98.2,0,17283,6.1,226744,177178,11.4
9850,994,1,74,98.2,0,16353,6.1,226975,177430,11.4
9860,995,1,74,98.2,0,15488,6.1,227165,177703,11.4
9870,996,1,74,98.2,0,14696,6.1,227376,177965,11.4
9880,997,1,74,98.2,0,13970,6.1,227535,178194,11.4
9890,998,1,74,98.2,0,13310,6.1,227775,178458,11.4
9900,999,1,74,98.2,0,12705,6.1,227942,178726,11.4
9910,1000,1,74,98.2,0,12154,6.1,228139,178953,11.4
9920,1001,1,74,98.2,0,11645,6.1,228295,179186,11.4
9930,1002,1,74,98.2,0,11179,6.1,228436,179343,11.3
9940,1003,1,74,98.2,0,10738,6.1,228594,179531,11.3
9950,1004,1,74,98.2,0,10327,6.1,228611,179537,11.3
9960,1005,1,74,98.2,0,9941,6.1,228467,179322,11.3
9970,1006,1,74,98.2,0,9585,6.1,227901,178505,11.3
9980,1007,1,74,98.2,0,9278,6.1,226554,176737,11.3
9990,1008,1,74,98.2,0,9044,6.1,224679,174192,11.3
10000,1009,1,74,98.2,0,8956,6.1,222495,171411,11.3
10010,1010,1,74,98.2,0,9104,6.1,220521,168942,11.3
10020,1011,1,74,98.2,0,9600,6.1,219003,167071,11.3
10030,1012,1,74,98.2,0,10557,6.1,217895,165647,11.3
10040,1013,1,74,98.2,0,12061,6.1,217086,164564,11.3
10050,1014,1,74,98.2,0,14173,6.1,216401,163661,11.3
10060,1015,1,74,98.2,0,16920,6.1,215847,162971,11.3
10070,1016,1,74,98.2,0,20268,6.1,215355,162288,11.3
10080,1017,1,74,98.2,0,24146,6.1,214971,161823,11.3
10090,1018,1,74,98.2,0,28462,6.1,214633,161380,11.3
10100,1019,1,74,98.2,0,33074,6.1,214335,160988,11.3
10110,1020,1,74,98.2,0,37838,6.1,214106,160679,11.3
10120,1021,1,74,98.2,0,42603,6.1,213871,160359,11.3
10130,1022,1,74,98.2,0,47223,6.1,213678,160138,11.3
10140,1023,1,74,98.2,0,51563,6.1,213502,159903,11.3
10150,1024,1,74,98.2,0,55510,6.1,213359,159759,11.3
10160,1025,1,74,98.2,0,58978,6.1,213357,159711,11.3
10170,1026,1,74,98.2,0,61924,6.1,213347,159707,11.3
10180,1027,1,74,98.2,0,62258,6.1,213436,159893,11.3
10190,1028,1,74,98.2,0,62258,6.1,213658,160143,11.3
10200,1029,1,74,98.2,0,62258,6.1,213947,160561,11.3
10210,1030,1,74,98.2,0,62258,6.1,214324,160995,11.3
10220,1031,1,74,98.2,0,62258,6.1,214698,161461,11.3
10230,1032,1,74,98.2,0,62146,6.1,215016,161869,11.3
10240,1033,1,74,98.2,8,61719,6.1,215357,162305,11.3
10250,1034,1,74,98.2,0,61023,6.1,215634,162647,11.3
10260,1035,1,74,98.2,0,60095,6.1,215889,162931,11.3
10270,1036,1,74,98.2,0,58980,6.1,216061,163188,11.3
10280,1037,1,74,98.2,0,57728,6.1,216295,163450,11.3
10290,1038,1,74,98.2,0,56371,6.1,216487,163679,11.3
10300,1039,1,74,98.2,0,54954,6.1,216596,163902,11.3
10310,1040,1,74,98.2,0,53517,6.1,216792,164118,11.3
10320,1041,1,74,98.2,0,52091,6.1,216968,164341,11.3
10330,1042,1,74,98.2,0,50700,6.1,217159,164575,11.3
10340,1043,1,74,98.2,0,49370,6.1,217370,164824,11.3
10350,1044,1,74,98.2,0,48116,6.1,217597,165141,11.3
10360,1045,1,74,98.2,0,46943,6.1,217822,165441,11.3
10370,1046,1,74,98.2,0,45855,6.1,218087,165786,11.3
10380,1047,1,74,98.2,0,44848,6.1,218333,166115,11.3
10390,1048,1,74,98.2,0,43927,6.1,218608,166461,11.3
10400,1049,1,74,98.2,0,43066,6.1,218953,166853,11.3
10410,1050,1,74,98.2,0,42249,6.1,219181,167293,11.3
10420,1051,1,74,98.2,0,41467,6.1,219588,167748,11.3
10430,1052,1,74,98.2,0,40704,6.1,219905,168150,11.3
10440,1053,1,74,98.2,0,39944,6.1,220237,168626,11.3
10450,1054,1,74,98.2,0,39162,6.1,220629,169076,11.3
10460,1055,1,74,98.2,0,38351,6.1,220989,169595,11.3
10470,1056,1,74,98.2,0,37502,6.1,221351,170056,11.3
10480,1057,1,74,98.2,0,36603,6.1,221718,170557,11.3
10490,1058,1,74,98.2,0,35649,6.1,222079,170976,11.3
10500,1059,1,74,98.2,0,34634,6.1,222457,171464,11.3
10510,1060,1,74,98.2,0,33574,6.1,222813,171926,11.3
10520,1061,1,74,98.2,0,32457,6.1,223171,172347,11.3
10530,1062,1,74,98.2,0,31299,6.1,223427,172783,11.3
10540,1063,1,74,98.2,0,30100,6.1,223751,173151,11.3
10550,1064,1,74,98.2,0,28886,6.1,224094,173575,11.3
10560,1065,1,74,98.2,0,27653,6.1,224324,173938,11.3
10570,1066,1,74,98.2,0,26426,6.1,224629,174283,11.3
10580,1067,1,74,98.2,0,25212,6.1,224894,174652,11.3
10590,1068,1,74,98.2,0,24028,6.1,225130,174989,11.3
10600,1069,1,74,98.2,0,22877,6.1,225360,175284,11.3
10610,1070,1,74,98.2,0,21768,6.1,225615,175606,11.3
10620,1071,1,74,98.2,0,20715,6.1,225816,175869,11.3
10630,1072,1,74,98.2,0,19713,6.1,226031,176155,11.3
10640,1073,1,74,98.2,0,18770,6.1,226230,176414,11.3
10650,1074,1,74,98.2,0,17894,6.1,226445,176722,11.3
10660,1075,1,74,98.2,0,17082,6.1,226686,176967,11.3
10670,1076,1,74,98.2,0,16339,6.1,226898,177250,11.3
10680,1077,1,74,98.2,0,15660,6.1,227103,177517,11.3
10690,1078,1,74,98.2,0,15035,6.1,227246,177775,11.3
10700,1079,1,74,98.2,0,14462,6.1,227477,178052,11.3
10710,1080,1,74,98.2,0,13933,6.1,227683,178294,11.3
10720,1081,1,74,98.2,0,13441,6.1,227877,178515,11.3
10730,1082,1,74,98.2,0,12987,6.1,228054,178760,11.3
10740,1083,1,74,98.2,0,12559,6.1,228187,178959,11.3
10750,1084,1,74,98.2,0,12159,6.1,228255,179049,11.3
10760,1085,1,74,98.2,0,11780,6.1,228239,179032,11.3
10770,1086,1,74,98.2,0,11423,6.1,227984,178637,11.3
10780,1087,1,74,98.2,0,11099,6.1,227170,177425,11.3
10790,1088,1,74,98.2,0,10823,6.1,225567,175251,11.3
10800,1089,1,74,98.2,0,10639,6.1,223490,172527,11.3
10810,1090,1,74,98.2,0,10617,6.1,221379,169846,11.3
10820,1091,1,74,98.2,0,10850,6.1,219643,167709,11.3
10830,1092,1,74,98.2,0,11433,6.1,218412,166125,11.3
10840,1093,1,74,98.2,0,12471,6.1,217482,164881,11.3
10850,1094,1,74,98.2,0,14024,6.1,216674,163850,11.3
10860,1095,1,74,98.2,0,16129,6.1,216104,163056,11.3
10870,1096,1,74,98.2,0,18784,6.1,215577,162391,11.3
10880,1097,1,74,98.2,0,21953,6.1,215141,161812,11.3
10890,1098,1,74,98.2,0,25558,6.1,214760,161324,11.3
10900,1099,1,74,98.2,0,29495,6.1,214492,160932,11.3
10910,1100,1,74,98.2,0,33641,6.1,214269,160616,11.3
10920,1101,1,74,98.2,0,37868,6.1,213963,160258,11.3
10930,1102,1,74,98.0,0,42042,6.1,213754,159994,11.3
10940,1103,1,74,98.0,0,46031,6.1,213588,159821,11.3
10950,1104,1,74,98.0,0,49734,6.1,213540,159685,11.3
10960,1105,1,74,98.0,0,53060,6.1,213432,159571,11.3
10970,1106,1,74,98.0,0,55940,6.1,213388,159537,11.3
10980,1107,1,74,98.0,0,58340,6.1,213446,159618,11.3
10990,1108,1,74,98.0,0,60242,6.1,213566,159819,11.3
11000,1109,1,74,98.0,0,61658,6.1,213894,160157,11.3
11010,1110,1,74,98.0,0,62258,6.1,214248,160609,11.3
11020,1111,1,74,98.0,0,62258,6.1,214587,161112,11.3
11030,1112,1,74,98.0,0,62258,6.1,214921,161583,11.3
11040,1113,1,74,98.0,8,61991,6.1,215369,162093,11.3
11050,1114,1,74,98.0,0,61406,6.1,215728,162457,11.3
11060,1115,1,74,98.0,0,60550,6.1,216011,162908,11.3
11070,1116,1,74,98.0,0,59472,6.1,216266,163231,11.3
11080,1117,1,74,98.0,0,58203,6.1,216489,163505,11.3
11090,1118,1,74,98.0,0,56802,6.1,216703,163747,11.3
11100,1119,1,74,98.0,0,55307,6.1,216907,164029,11.3
11110,1120,1,74,98.0,0,53753,6.1,217086,164261,11.3
11120,1121,1,74,98.0,0,52189,6.1,217251,164501,11.3
11130,1122,1,74,98.0,0,50636,6.1,217440,164743,11.3
11140,1123,1,74,98.0,0,49130,6.1,217644,164992,11.3
11150,1124,1,74,98.0,0,47693,6.1,217847,165279,11.3
11160,1125,1,74,98.0,0,46340,6.1,218080,165598,11.3
11170,1126,1,74,98.0,0,45077,6.1,218332,165948,11.3
11180,1127,1,74,98.0,0,43908,6.1,218655,166321,11.3
11190,1128,1,74,98.0,0,42829,6.1,218962,166687,11.3
11200,1129,1,74,98.0,0,41829,6.1,219214,167072,11.3
11210,1130,1,74,98.0,0,40896,6.1,219541,167489,11.3
11220,1131,1,74,98.0,0,40016,6.1,219915,167955,11.3
11230,1132,1,74,98.0,0,39171,6.1,220260,168390,11.3
11240,1133,1,74,98.0,0,38340,6.1,220605,168880,11.3
11250,1134,1,74,98.0,0,37507,6.1,220972,169335,11.3
11260,1135,1,74,98.0,0,36649,6.1,221331,169812,11.3
11270,1136,1,74,98.0,0,35767,6.1,221728,170306,11.3
11280,1137,1,74,98.0,0,34838,6.1,222063,170789,11.3
11290,1138,1,74,98.0,0,33862,6.1,222475,171254,11.3
11300,1139,1,74,98.0,0,32827,6.1,222830,171727,11.3
11310,1140,1,74,98.0,0,31739,6.1,223155,172152,11.3
11320,1141,1,74,98.0,0,30603,6.1,223503,172589,11.3
11330,1142,1,74,98.0,0,29413,6.1,223825,173025,11.3
11340,1143,1,74,98.0,0,28192,6.1,224128,173402,11.3
11350,1144,1,74,98.0,0,26939,6.1,224422,173801,11.3
11360,1145,1,74,98.0,0,25678,6.1,224726,174177,11.3
11370,1146,1,74,98.0,0,24413,5.5,224943,174502,11.3
11380,1147,1,74,98.0,0,23168,5.5,225177,174832,11.3
11390,1148,1,74,98.0,0,21948,5.5,225443,175147,11.3
11400,1149,1,74,98.0,0,20764,5.5,225632,175429,11.3
11410,1150,1,74,98.0,0,19635,5.5,225870,175753,11.3
11420,1151,1,74,98.0,0,18561,5.5,226107,176034,11.3
11430,1152,1,74,98.0,0,17552,5.5,226326,176316,11.3
11440,1153,1,74,98.0,0,16609,5.5,226482,176561,11.3
11450,1154,1,74,98.0,0,15739,5.5,226735,176832,11.3
11460,1155,1,74,98.0,0,14935,5.5,226906,177131,11.3
11470,1156,1,74,98.0,0,14204,5.5,227100,177361,11.3
11480,1157,1,74,98.0,0,13540,5.5,227269,177658,11.3
11490,1158,1,74,98.0,0,12937,5.5,227496,177874,11.3
11500,1159,1,74,98.0,0,12386,5.5,227645,178112,11.3
11510,1160,1,74,98.0,0,11873,5.5,227906,178377,11.3
11520,1161,1,74,98.0,0,11412,5.5,228048,178618,11.3
11530,1162,1,74,98.0,0,10989,5.5,228280,178881,11.3
11540,1163,1,74,98.0,0,10590,5.5,228417,179100,11.3
11550,1164,1,74,98.0,0,10208,5.5,228553,179312,11.3
11560,1165,1,74,98.0,0,9843,5.5,228691,179437,11.3
11570,1166,1,74,98.0,0,9500,5.5,228666,179440,11.3
11580,1167,1,74,98.0,0,9175,5.5,228483,179169,11.3
11590,1168,1,74,98.0,0,8873,5.5,227854,178157,11.3
11600,1169,1,74,98.0,0,8610,5.5,226432,176239,11.3
11610,1170,1,74,98.0,0,8432,5.5,224393,173582,11.3
11620,1171,1,74,98.0,0,8390,5.5,222207,170792,11.3
11630,1172,1,74,98.0,0,8585,5.5,220396,168489,11.3
11640,1173,1,74,98.0,0,9124,5.5,219015,166741,11.3
11650,1174,1,74,98.0,0,10109,5.5,217981,165380,11.3
11660,1175,1,74,98.0,0,11631,5.5,217187,164340,11.3
11670,1176,1,74,98.0,0,13723,5.5,216566,163515,11.3
11680,1177,1,74,98.0,0,16405,5.5,216095,162856,11.3
11690,1178,1,74,98.0,0,19622,5.5,215717,162327,11.3
11700,1179,1,74,98.0,0,23320,5.5,215318,161877,11.3
11710,1180,1,74,98.0,0,27390,5.5,215054,161472,11.3
11720,1181,1,74,98.0,0,31707,5.5,214811,161132,11.3
11730,1182,1,74,98.0,0,36136,5.5,214583,160821,11.3
11740,1183,1,74,98.0,0,40528,5.5,214365,160583,11.3
11750,1184,1,74,98.0,0,44752,5.5,214225,160398,11.3
11760,1185,1,74,98.0,0,48690,5.5,214146,160266,11.3
11770,1186,1,74,98.0,0,52241,5.5,214065,160144,11.3
11780,1187,1,74,98.0,0,55339,5.5,214063,160146,11.3
11790,1188,1,74,98.0,0,57930,5.5,214133,160312,11.3
11800,1189,1,74,98.0,0,59996,5.5,214317,160498,11.3
11810,1190,1,74,98.0,0,61537,5.5,214576,160892,11.3
11820,1191,1,74,98.0,0,62258,5.5,214890,161322,11.3
11830,1192,1,74,98.0,0,62258,5.5,215304,161818,11.3
11840,1193,1,74,98.0,0,62258,5.5,215703,162306,11.3
11850,1194,1,74,98.0,8,61980,5.5,216017,162734,11.3
11860,1195,1,74,98.0,0,61364,5.5,216374,163137,11.3
11870,1196,1,74,98.0,0,60455,5.5,216615,163447,11.3
11880,1197,1,74,98.0,0,59303,5.5,216855,163750,11.3
11890,1198,1,74,98.0,0,57969,5.5,217077,164018,11.3
11900,1199,1,74,98.0,0,56486,5.5,217200,164204,11.3
11910,1200,1,74,98.0,0,54927,5.5,217379,164386,11.3
11920,1201,1,74,98.0,0,53312,5.5,217489,164576,11.3
11930,1202,1,74,98.0,0,51704,5.5,217627,164795,11.5
11940,1203,1,74,98.0,0,50134,5.5,217795,165047,11.5
11950,1204,1,74,98.0,0,48624,5.5,218013,165268,11.5
11960,1205,1,74,98.0,0,47209,5.5,218204,165503,11.5
11970,1206,1,74,98.0,0,45898,5.5,218334,165801,11.5
11980,1207,1,74,98.0,0,44697,5.5,218614,166110,11.5
11990,1208,1,74,98.0,0,43601,5.5,218832,166449,11.5
12000,1209,1,74,98.0,0,42610,5.5,219152,166795,11.5
12010,1210,1,74,98.0,0,41712,5.5,219394,167154,11.5
12020,1211,1,74,98.0,0,40879,5.5,219703,167522,11.5
12030,1212,1,74,98.0,0,40102,5.5,220018,167939,11.5
12040,1213,1,74,98.0,0,39350,5.5,220364,168380,11.5
12050,1214,1,74,98.0,0,38613,5.5,220654,168839,11.5
12060,1215,1,74,98.0,0,37863,5.5,221034,169240,11.5
12070,1216,1,74,98.0,0,37088,5.5,221377,169762,11.5
12080,1217,1,74,98.0,0,36271,5.5,221756,170217,11.5
12090,1218,1,74,98.0,0,35400,5.5,222103,170689,11.5
12100,1219,1,74,98.0,0,34468,5.5,222431,171109,11.5
12110,1220,1,74,98.0,0,33471,5.5,222844,171643,11.5
12120,1221,1,74,98.0,0,32406,5.5,223144,172062,11.5
12130,1222,1,74,98.0,0,31274,5.5,223487,172515,11.5
12140,1223,1,74,98.0,0,30092,5.5,223791,172938,11.5
12150,1224,1,74,98.0,0,28860,5.5,224089,173315,11.5
12160,1225,1,74,98.0,0,27595,5.5,224352,173674,11.5
12170,1226,1,74,98.0,0,26309,5.5,224647,174028,11.5
12180,1227,1,74,98.0,0,25003,5.5,224892,174407,11.5
12190,1228,1,74,98.0,0,23705,5.5,225162,174702,11.5
12200,1229,1,74,98.0,0,22433,5.5,225400,175036,11.5
12210,1230,1,74,98.0,0,21200,5.5,225663,175369,11.5
12220,1231,1,74,98.0,0,20017,5.5,225855,175626,11.5
12230,1232,1,74,98.0,0,18891,5.5,226108,175954,11.5
12240,1233,1,74,98.0,0,17822,5.5,226269,176222,11.5
12250,1234,1,74,98.0,0,16821,5.5,226467,176470,11.5
12260,1235,1,74,98.0,0,15896,5.5,226673,176701,11.5
12270,1236,1,74,98.0,0,15041,5.5,226910,177027,11.5
12280,1237,1,74,98.0,0,14261,5.5,227063,177243,11.5
12290,1238,1,74,98.0,0,13551,5.5,227298,177529,11.5
12300,1239,1,74,98.0,0,12906,5.5,227448,177725,11.5
12310,1240,1,74,98.0,0,12319,5.5,227668,178037,11.5
12320,1241,1,74,98.0,0,11780,5.5,227839,178268,11.5
12330,1242,1,74,98.0,0,11281,5.5,228099,178554,11.5
12340,1243,1,74,98.0,0,10824,5.5,228249,178763,11.5
12350,1244,1,74,98.0,0,10396,5.5,228405,178938,11.5
12360,1245,1,74,98.0,0,9992,5.5,228442,179049,11.5
12370,1246,1,74,98.0,0,9612,5.5,228486,179050,11.5
12380,1247,1,74,98.0,0,9261,5.5,228230,178707,11.5
12390,1248,1,74,98.0,0,8934,5.5,227449,177558,11.5
12400,1249,1,74,98.0,0,8661,5.5,225902,175469,11.5
12410,1250,1,74,98.0,0,8476,5.5,223901,172719,11.5
12420,1251,1,74,98.0,0,8461,5.5,221735,170004,11.5
12430,1252,1,74,98.0,0,8706,5.5,219913,167756,11.5
12440,1253,1,74,98.0,0,9327,5.5,218604,166049,11.5
12450,1254,1,74,98.0,0,10431,5.5,217614,164729,11.5
12460,1255,1,74,98.0,0,12095,5.5,216865,163723,11.5
12470,1256,1,74,98.0,0,14360,5.5,216209,162887,11.5
12480,1257,1,74,98.0,0,17234,5.5,215757,162246,11.5
12490,1258,1,74,98.0,0,20684,5.5,215287,161645,11.5
12500,1259,1,74,98.0,0,24620,5.5,214913,161124,11.5
12510,1260,1,74,98.0,0,28933,5.5,214579,160720,11.5
12520,1261,1,74,98.0,0,33487,5.5,214287,160340,11.5
12530,1262,1,74,98.0,0,38146,5.5,214045,160035,11.5
12540,1263,1,74,98.0,0,42758,5.5,213841,159786,11.5
12550,1264,1,74,98.0,0,47188,5.5,213652,159564,11.5
12560,1265,1,74,98.0,0,51305,5.5,213548,159405,11.5
12570,1266,1,74,98.0,0,55011,5.5,213427,159246,11.5
12580,1267,1,74,98.0,0,58230,5.5,213394,159194,11.5
12590,1268,1,74,98.0,0,60925,5.5,213434,159306,11.5
12600,1269,1,74,98.0,0,62258,5.5,213593,159511,11.5
12610,1270,1,74,98.0,0,62258,5.5,213868,159831,11.5
12620,1271,1,74,98.0,0,62258,5.5,214195,160232,11.5
12630,1272,1,74,98.0,0,62258,5.5,214535,160709,11.5
12640,1273,1,74,98.0,0,62258,5.5,214874,161149,11.5
12650,1274,1,74,98.0,8,62028,5.5,215206,161629,11.5
12660,1275,1,74,98.0,0,61491,5.5,215536,162007,11.5
12670,1276,1,74,98.0,0,60678,5.5,215808,162351,11.5
12680,1277,1,74,98.0,0,59647,5.5,216005,162658,11.5
12690,1278,1,74,98.0,0,58440,5.5,216197,162861,11.5
12700,1279,1,74,98.0,0,57098,5.5,216425,163132,11.5
12710,1280,1,74,98.0,0,55669,5.5,216564,163332,11.5
12720,1281,1,74,98.0,0,54193,5.5,216716,163573,11.5
12730,1282,1,74,98.0,0,52707,5.5,216914,163780,11.5
12740,1283,1,74,98.0,0,51238,5.5,217062,164009,11.5
12750,1284,1,74,98.0,0,49825,5.5,217266,164231,11.5
12760,1285,1,74,98.0,0,48480,5.5,217423,164475,11.5
12770,1286,1,74,98.0,0,47223,5.5,217664,164787,11.5
12780,1287,1,74,98.0,0,46059,5.5,217909,165094,11.5
12790,1288,1,74,98.0,0,44983,5.5,218164,165441,11.5
12800,1289,1,74,98.0,0,43996,5.5,218444,165782,11.5
12810,1290,1,74,98.0,0,43085,5.5,218777,166182,11.5
12820,1291,1,74,98.0,0,42242,5.5,219082,166622,11.5
12830,1292,1,74,98.0,0,41439,5.5,219340,167001,11.5
12840,1293,1,74,98.0,0,40667,5.5,219683,167461,11.5
12850,1294,1,74,98.0,0,39913,5.5,220042,167898,11.5
12860,1295,1,74,98.0,0,39147,5.5,220411,168371,11.5
12870,1296,1,74,98.0,0,38358,5.5,220751,168854,11.5
12880,1297,1,74,98.0,0,37529,5.5,221127,169352,11.5
12890,1298,1,74,98.0,0,36655,5.5,221486,169867,11.5
12900,1299,1,74,98.0,0,35719,5.5,221900,170349,11.5
12910,1300,1,74,98.0,0,34721,5.5,222204,170795,11.5
12920,1301,1,74,98.0,0,33665,5.5,222623,171269,11.5
12930,1302,1,74,97.9,0,32551,5.5,222899,171693,11.5
12940,1303,1,74,97.9,0,31385,5.5,223318,172167,11.5
12950,1304,1,74,97.9,0,30171,5.5,223631,172616,11.5
12960,1305,1,74,97.9,0,28920,5.5,223959,173036,11.5
12970,1306,1,74,97.9,0,27650,5.5,224242,173398,11.5
12980,1307,1,74,97.9,0,26370,5.5,224544,173777,11.5
12990,1308,1,74,97.9,0,25092,5.5,224808,174144,11.5
13000,1309,1,74,97.9,0,23833,5.5,225059,174450,11.5
13010,1310,1,74,97.9,0,22604,5.5,225301,174830,11.5
13020,1311,1,74,97.9,0,21411,5.5,225528,175121,11.5
13030,1312,1,74,97.9,0,20270,5.5,225751,175378,11.5
13040,1313,1,74,97.9,0,19189,5.5,225989,175661,11.5
13050,1314,1,74,97.9,0,18166,5.5,226161,175983,11.5
13060,1315,1,74,97.9,0,17214,5.5,226381,176280,11.5
13070,1316,1,74,97.9,0,16337,5.5,226474,176567,11.5
13080,1317,1,74,97.9,0,15526,5.5,226822,176824,11.5
13090,1318,1,74,97.9,0,14781,5.5,226988,177074,11.5
13100,1319,1,74,97.9,0,14101,5.5,227172,177332,11.5
13110,1320,1,74,97.9,0,13477,5.5,227366,177585,11.5
13120,1321,1,74,97.9,0,12907,5.5,227562,177891,11.5
13130,1322,1,74,97.9,0,12387,5.5,227786,178105,11.5
13140,1323,1,74,97.9,0,11906,5.5,227950,178337,11.5
13150,1324,1,74,97.9,0,11464,5.5,228137,178590,11.5
13160,1325,1,74,97.9,0,11049,5.5,228338,178832,11.5
13170,1326,1,74,97.9,0,10662,5.5,228356,179065,11.5
13180,1327,1,74,97.9,0,10292,5.5,228607,179208,11.5
13190,1328,1,74,97.9,0,9938,5.5,228621,179272,11.5
13200,1329,1,74,97.9,0,9602,5.5,228543,179093,11.5
13210,1330,1,74,97.9,0,9288,5.5,228117,178468,11.5
13220,1331,1,74,97.9,0,9007,5.5,226927,176794,11.5
13230,1332,1,74,97.9,0,8793,5.5,225109,174310,11.5
13240,1333,1,74,97.9,0,8701,5.5,222942,171474,11.5
13250,1334,1,74,97.9,0,8809,5.5,220971,169012,11.5
13260,1335,1,74,97.9,0,9216,5.5,219447,167071,11.5
13270,1336,1,74,97.9,0,10038,5.5,218174,165603,11.5
13280,1337,1,74,97.9,0,11354,5.5,217488,164513,11.5
13290,1338,1,74,97.9,0,13219,5.5,216837,163601,11.5
13300,1339,1,74,97.9,0,15662,5.5,216294,162901,11.5
13310,1340,1,74,97.9,0,18663,5.5,215841,162316,11.5
13320,1341,1,74,97.9,0,22147,5.5,215493,161835,11.5
13330,1342,1,74,97.9,0,26040,5.5,215156,161456,11.5
13340,1343,1,74,97.9,0,30211,5.5,214894,161136,11.5
13350,1344,1,74,97.9,0,34538,5.5,214676,160774,11.5
13360,1345,1,74,97.9,0,38879,5.5,214477,160552,11.5
13370,1346,1,74,97.9,0,43097,5.5,214341,160345,11.5
13380,1347,1,74,97.9,0,47064,5.5,214196,160139,11.5
13390,1348,1,74,97.9,0,50679,5.5,214108,160048,11.5
13400,1349,1,74,97.9,0,53863,5.5,214041,160014,11.5
13410,1350,1,74,97.9,0,56566,5.5,214175,160107,11.5
13420,1351,1,74,97.9,0,58755,5.5,214294,160305,11.5
13430,1352,1,74,97.9,0,60422,5.5,214523,160563,11.5
13440,1353,1,74,97.9,0,61586,5.5,214811,161012,11.5
13450,1354,1,74,97.9,0,62258,5.5,215169,161530,11.5
13460,1355,1,74,97.9,0,62258,5.5,215648,162037,11.5
13470,1356,1,74,97.9,0,62090,5.5,215989,162534,11.5
13480,1357,1,74,97.9,8,61571,5.5,216395,162949,11.5
13490,1358,1,74,97.9,0,60740,5.5,216740,163370,11.5
13500,1359,1,74,97.9,0,59648,5.5,216989,163704,11.5
13510,1360,1,74,97.9,0,58345,5.5,217184,163989,11.5
13520,1361,1,74,97.9,0,56887,5.5,217381,164258,11.5
13530,1362,1,74,97.9,0,55313,5.5,217596,164469,11.5
13540,1363,1,74,97.9,0,53672,5.5,217720,164741,11.5
13550,1364,1,74,97.9,0,52010,5.5,217958,164917,11.5
13560,1365,1,74,97.9,0,50364,5.5,218129,165208,11.5
13570,1366,1,74,97.9,0,48762,5.5,218300,165452,11.5
13580,1367,1,74,97.9,0,47237,5.5,218513,165735,11.5
13590,1368,1,74,97.9,0,45801,5.5,218720,166014,11.5
13600,1369,1,74,97.9,0,44470,5.5,218941,166345,11.5
13610,1370,1,74,97.9,0,43249,5.5,219210,166646,11.5
13620,1371,1,74,97.9,0,42133,5.5,219482,167004,11.5
13630,1372,1,74,97.9,0,41111,5.5,219772,167429,11.5
13640,1373,1,74,97.9,0,40172,5.5,220109,167840,11.5
13650,1374,1,74,97.9,0,39286,5.5,220421,168272,11.5
13660,1375,1,74,97.9,0,38444,5.5,220762,168723,11.5
13670,1376,1,74,97.9,0,37634,5.5,221115,169174,11.5
13680,1377,1,74,97.9,0,36815,5.5,221463,169695,11.5
13690,1378,1,74,97.9,0,35983,5.5,221858,170177,11.5
13700,1379,1,74,97.9,0,35113,5.5,222234,170651,11.5
13710,1380,1,74,97.9,0,34200,5.5,222603,171123,11.5
13720,1381,1,74,97.9,0,33232,5.5,222925,171550,11.5
13730,1382,1,74,97.9,0,32197,5.5,223295,172023,11.5
13740,1383,1,74,97.9,0,31095,5.5,223617,172482,11.5
13750,1384,1,74,97.9,0,29936,5.5,223947,172915,11.5
13760,1385,1,74,97.9,0,28728,5.5,224271,173311,11.5
13770,1386,1,74,97.9,0,27469,5.5,224572,173702,11.5
13780,1387,1,74,97.9,0,26184,5.5,224871,174094,11.5
13790,1388,1,74,97.9,0,24877,5.5,225105,174419,11.5
13800,1389,1,74,97.9,0,23574,5.5,225330,174749,11.5
13810,1390,1,74,97.9,0,22279,5.5,225635,175099,11.5
13820,1391,1,74,97.9,0,21012,5.5,225854,175414,11.5
13830,1392,1,74,97.9,0,19783,5.5,226112,175733,11.5
13840,1393,1,74,97.9,0,18611,5.5,226308,176012,11.5
13850,1394,1,74,97.9,0,17497,5.5,226516,176281,11.5
13860,1395,1,74,97.9,0,16451,5.5,226782,176578,11.5
13870,1396,1,74,97.9,0,15482,5.5,226927,176819,11.5
13880,1397,1,74,97.9,0,14588,5.5,227120,177099,11.5
13890,1398,1,74,97.9,0,13764,5.5,227312,177342,11.5
13900,1399,1,74,97.9,0,13017,5.5,227476,177596,11.5
13910,1400,1,74,97.9,0,12328,5.5,227714,177860,11.5
13920,1401,1,74,97.9,0,11710,5.5,227934,178117,11.5
13930,1402,1,74,97.9,0,11139,5.5,228110,178365,11.5
13940,1403,1,74,97.9,0,10622,5.5,228291,178584,11.5
13950,1404,1,74,97.9,0,10158,5.5,228492,178853,11.5
13960,1405,1,74,97.9,0,9723,5.5,228658,179071,11.5
13970,1406,1,74,97.9,0,9318,5.5,228792,179344,11.5
13980,1407,1,74,97.9,0,8932,5.5,228897,179433,11.5
13990,1408,1,74,97.9,0,8569,5.5,229033,179638,11.5
14000,1409,1,74,97.9,0,8224,5.5,229027,179632,11.5
14010,1410,1,74,97.9,0,7897,5.5,228796,179300,11.5
14020,1411,1,74,97.9,0,7594,5.5,228109,178301,11.5
14030,1412,1,74,97.9,0,7333,5.5,226685,176306,11.5
14040,1413,1,74,97.9,0,7161,5.5,224654,173614,11.5
14050,1414,1,74,97.9,0,7142,5.5,222485,170845,11.5
14060,1415,1,74,97.9,0,7384,5.5,220651,168524,11.5
14070,1416,1,74,97.9,0,7986,5.5,219299,166709,11.5
14080,1417,1,74,97.9,0,9060,5.5,218295,165461,11.5
14090,1418,1,74,97.9,0,10695,5.5,217504,164478,11.5
14100,1419,1,74,97.9,0,12933,5.5,216955,163668,11.5
14110,1420,1,74,97.9,0,15782,5.5,216432,163011,11.5
14120,1421,1,74,97.9,0,19196,5.5,216017,162499,11.5
14130,1422,1,74,97.9,0,23108,5.5,215696,162001,11.5
14140,1423,1,74,97.9,0,27397,5.5,215371,161641,11.5
14150,1424,1,74,97.9,0,31932,5.5,215128,161295,11.5
14160,1425,1,74,97.9,0,36579,5.5,214924,161060,11.5
14170,1426,1,74,97.9,0,41175,5.5,214757,160723,11.5
14180,1427,1,74,97.9,0,45582,5.5,214606,160608,11.5
14190,1428,1,74,97.9,0,49678,5.5,214486,160483,11.5
14200,1429,1,74,97.9,0,53367,5.5,214434,160416,11.5
14210,1430,1,74,97.9,0,56570,5.5,214458,160426,11.5
14220,1431,1,74,97.9,0,59236,5.5,214570,160594,11.5
14230,1432,1,74,97.9,0,61346,5.5,214752,160858,11.5
14240,1433,1,74,97.9,0,62258,5.5,215058,161218,11.5
14250,1434,1,74,97.9,0,62258,5.5,215435,161646,11.5
14260,1435,1,74,97.9,0,62258,5.5,215757,162103,11.5
14270,1436,1,74,97.9,0,62258,5.5,216103,162581,11.5
14280,1437,1,74,97.9,8,61923,5.5,216462,163023,11.5
14290,1438,1,74,97.9,0,61255,5.5,216731,163382,11.5
14300,1439,1,74,97.9,0,60304,5.5,216969,163687,11.5
14310,1440,1,74,97.9,0,59115,5.5,217194,163957,11.5
14320,1441,1,74,97.9,0,57749,5.5,217390,164217,11.5
14330,1442,1,74,97.9,0,56250,5.5,217576,164409,11.5
14340,1443,1,74,97.9,0,54669,5.5,217723,164612,11.5
14350,1444,1,74,97.9,0,53060,5.5,217860,164782,11.5
14360,1445,1,74,97.9,0,51463,5.5,217949,165002,11.5
14370,1446,1,74,97.9,0,49910,5.5,218092,165201,11.5
14380,1447,1,74,97.9,0,48429,5.5,218308,165456,11.5
14390,1448,1,74,97.9,0,47041,5.5,218457,165694,11.5
14400,1449,1,74,97.9,0,45765,5.5,218755,165968,11.5
14410,1450,1,74,97.9,0,44594,5.5,218928,166266,11.5
14420,1451,1,74,97.9,0,43539,5.5,219242,166651,11.5
14430,1452,1,74,97.9,0,42583,5.5,219510,166984,11.5
14440,1453,1,74,97.9,0,41710,5.5,219784,167361,11.5
14450,1454,1,74,97.9,0,40903,5.5,220029,167728,11.5
14460,1455,1,74,97.9,0,40145,5.5,220410,168152,11.5
14470,1456,1,74,97.9,0,39408,5.5,220711,168600,11.5
14480,1457,1,74,97.9,0,38674,5.5,221029,169021,11.5
14490,1458,1,74,97.9,0,37933,5.5,221396,169484,11.5
14500,1459,1,74,97.9,0,37155,5.5,221742,169973,11.5
14510,1460,1,74,97.9,0,36335,5.5,222089,170421,11.5
14520,1461,1,74,97.9,0,35449,5.5,222436,170904,11.5
14530,1462,1,74,97.9,0,34509,5.5,222805,171353,11.5
14540,1463,1,74,97.9,0,33490,5.5,223159,171807,11.5
14550,1464,1,74,97.9,0,32410,5.5,223456,172222,11.5
14560,1465,1,74,97.9,0,31263,5.5,223766,172662,11.5
14570,1466,1,74,97.9,0,30059,5.5,224138,173116,11.5
14580,1467,1,74,97.9,0,28806,5.5,224418,173483,11.5
14590,1468,1,74,97.9,0,27530,5.5,224691,173868,11.5
14600,1469,1,74,97.9,0,26228,5.5,224947,174240,11.5
14610,1470,1,74,97.9,0,24929,5.5,225225,174577,11.5
14620,1471,1,74,97.9,0,23632,5.5,225452,174903,11.5
14630,1472,1,74,97.9,0,22362,5.5,225723,175208,11.5
14640,1473,1,74,97.9,0,21130,5.5,225936,175526,11.5
14650,1474,1,74,97.9,0,19937,5.5,226140,175820,11.5
14660,1475,1,74,97.9,0,18807,5.5,226418,176130,11.5
14670,1476,1,74,97.9,0,17740,5.7,226643,176411,11.5
14680,1477,1,74,97.9,0,16748,5.7,226790,176664,11.5
14690,1478,1,74,97.9,0,15825,5.7,227028,176950,11.5
14700,1479,1,74,97.9,0,14973,5.7,227270,177223,11.5
14710,1480,1,74,97.9,0,14185,5.7,227414,177475,11.5
14720,1481,1,74,97.9,0,13472,5.7,227609,177730,11.5
14730,1482,1,74,97.9,0,12819,5.7,227844,178008,11.5
14740,1483,1,74,97.9,0,12224,5.7,228038,178265,11.5
14750,1484,1,74,97.9,0,11677,5.7,228231,178499,11.5
14760,1485,1,74,97.9,0,11171,5.7,228427,178726,11.5
14770,1486,1,74,97.9,0,10706,5.7,228557,178959,11.5
14780,1487,1,74,97.9,0,10265,5.7,228657,179088,11.5
14790,1488,1,74,97.9,0,9854,5.7,228755,179148,11.5
14800,1489,1,74,97.9,0,9461,5.7,228576,178934,11.5
14810,1490,1,74,97.9,0,9098,5.7,228069,178168,11.5
14820,1491,1,74,97.9,0,8788,5.7,226764,176320,11.5
14830,1492,1,74,97.9,0,8555,5.7,224862,173780,11.5
14840,1493,1,74,97.9,0,8458,5.7,222670,170945,11.5
14850,1494,1,74,97.9,0,8591,5.7,220711,168505,11.5
14860,1495,1,74,97.9,0,9067,5.7,219304,166643,11.5
14870,1496,1,74,97.9,0,9985,5.7,218188,165233,11.5
14880,1497,1,74,97.9,0,11453,5.7,217368,164099,11.5
14890,1498,1,74,97.9,0,13512,5.7,216606,163186,11.5
14900,1499,1,74,97.9,0,16187,5.7,216130,162412,11.5
14910,1500,1,74,97.9,0,19452,5.7,215673,161816,11.5
14920,1501,1,74,97.9,0,23249,5.7,215258,161275,11.5
14930,1502,1,74,97.9,0,27465,5.7,214870,160782,11.5
14940,1503,1,74,97.9,0,31980,5.7,214560,160441,11.5
14950,1504,1,74,97.9,0,36649,5.7,214254,160061,11.5
14960,1505,1,74,97.9,0,41332,5.7,214069,159787,11.5
14970,1506,1,74,97.9,0,45875,5.7,213809,159477,11.5
14980,1507,1,74,97.9,0,50148,5.7,213657,159262,11.5
14990,1508,1,74,97.9,0,54045,5.7,213499,159163,11.5
15000,1509,1,74,97.9,0,57491,5.7,213462,159063,11.5
15010,1510,1,74,97.9,0,60424,5.7,213431,159079,11.5
15020,1511,1,74,97.9,0,62258,5.7,213495,159212,11.5
15030,1512,1,74,97.9,0,62258,5.7,213732,159498,11.5
15040,1513,1,74,97.9,0,62258,5.7,214005,159854,11.5
15050,1514,1,74,97.9,0,62258,5.7,214328,160282,11.5
15060,1515,1,74,97.9,0,62258,5.7,214653,160713,11.5
15070,1516,1,74,97.9,0,62186,5.7,215026,161203,11.5
15080,1517,1,74,97.9,8,61801,5.7,215342,161580,11.5
15090,1518,1,74,97.9,0,61134,5.7,215632,161935,11.5
15100,1519,1,74,97.9,0,60231,5.7,215878,162269,11.5
15110,1520,1,74,97.9,0,59135,5.7,216079,162532,11.5
15120,1521,1,74,97.9,0,57891,5.7,216257,162762,11.5
15130,1522,1,74,97.9,0,56535,5.7,216467,163010,11.5
15140,1523,1,74,97.9,0,55124,5.7,216611,163221,11.5
15150,1524,1,74,97.9,0,53678,5.7,216732,163455,11.5
15160,1525,1,74,97.9,0,52247,5.7,216909,163602,11.5
15170,1526,1,74,97.9,0,50847,5.7,217090,163888,11.5
15180,1527,1,74,97.9,0,49503,5.7,217277,164144,11.5
15190,1528,1,74,97.9,0,48236,5.7,217521,164413,11.5
15200,1529,1,74,97.9,0,47045,5.7,217752,164690,11.5
15210,1530,1,74,97.9,0,45946,5.7,217985,165025,11.5
15220,1531,1,74,97.9,0,44939,5.7,218196,165357,11.5
15230,1532,1,74,97.9,0,44008,5.7,218465,165731,11.5
15240,1533,1,74,97.9,0,43139,5.7,218787,166129,11.5
15250,1534,1,74,97.9,0,42319,5.7,219105,166537,11.5
15260,1535,1,74,97.9,0,41545,5.7,219437,166962,11.5
15270,1536,1,74,97.9,0,40784,5.7,219787,167400,11.5
15280,1537,1,74,97.9,0,40022,5.7,220121,167906,11.5
15290,1538,1,74,97.9,0,39247,5.7,220463,168300,11.5
15300,1539,1,74,97.9,0,38450,5.7,220815,168812,11.5
15310,1540,1,74,97.9,0,37607,5.7,221204,169297,11.5
15320,1541,1,74,97.9,0,36721,5.7,221512,169771,11.5
15330,1542,1,74,97.9,0,35773,5.7,221921,170247,11.5
15340,1543,1,74,97.9,0,34769,5.7,222288,170737,11.5
15350,1544,1,74,97.9,0,33704,5.7,222607,171213,11.5
15360,1545,1,74,97.9,0,32587,5.7,222979,171649,11.5
15370,1546,1,74,97.9,0,31428,5.7,223258,172111,11.5
15380,1547,1,74,97.9,0,30222,5.7,223624,172536,11.5
15390,1548,1,74,97.9,0,28986,5.7,223965,172917,11.5
15400,1549,1,74,97.9,0,27735,5.7,224226,173303,11.5
15410,1550,1,74,97.9,0,26480,5.7,224492,173692,11.5
15420,1551,1,74,97.9,0,25233,5.7,224755,174007,11.5
15430,1552,1,74,97.9,0,24004,5.7,224989,174336,11.5
15440,1553,1,74,97.9,0,22810,5.7,225281,174641,11.5
15450,1554,1,74,97.9,0,21652,5.7,225451,174951,11.5
15460,1555,1,74,97.9,0,20550,5.7,225696,175246,11.5
15470,1556,1,74,97.9,0,19507,5.7,225893,175538,11.5
15480,1557,1,74,97.9,0,18527,5.7,226078,175837,11.5
15490,1558,1,74,97.9,0,17616,5.7,226269,176062,11.5
15500,1559,1,74,97.9,0,16769,5.7,226487,176363,11.5
15510,1560,1,74,97.9,0,15997,5.7,226662,176644,11.5
15520,1561,1,74,97.9,0,15285,5.7,226876,176912,11.5
15530,1562,1,74,97.9,0,14637,5.7,227069,177126,11.5
15540,1563,1,74,97.9,0,14048,5.7,227252,177375,11.5
15550,1564,1,74,97.9,0,13503,5.7,227423,177635,11.5
15560,1565,1,74,97.9,0,13007,5.7,227571,177885,11.5
15570,1566,1,74,97.9,0,12554,5.7,227770,178132,11.5
15580,1567,1,74,97.9,0,12134,5.7,227918,178359,11.5
15590,1568,1,74,97.9,0,11735,5.7,228175,178606,11.5
15600,1569,1,74,97.9,0,11364,5.7,228291,178819,11.5
15610,1570,1,74,97.9,0,11005,5.7,228427,178976,11.5
15620,1571,1,74,97.9,0,10666,5.7,228445,179043,11.5
15630,1572,1,74,97.9,0,10350,5.7,228374,178956,11.5
15640,1573,1,74,97.9,0,10051,5.7,227993,178428,11.5
15650,1574,1,74,97.9,0,9779,5.7,227026,176949,11.5
15660,1575,1,74,97.9,0,9562,5.7,225342,174617,11.5
15670,1576,1,74,97.9,0,9443,5.7,223203,171854,11.5
15680,1577,1,74,97.9,0,9509,5.7,221184,169275,11.5
15690,1578,1,74,97.9,0,9855,5.7,219581,167212,11.5
15700,1579,1,74,97.9,0,10577,5.7,218399,165716,11.5
15710,1580,1,74,97.9,0,11769,5.7,217507,164551,11.5
15720,1581,1,74,97.9,0,13497,5.7,216815,163613,11.5
15730,1582,1,74,97.9,0,15784,5.7,216250,162845,11.5
15740,1583,1,74,97.9,0,18626,5.7,215778,162240,11.5
15750,1584,1,74,97.9,0,21966,5.7,215445,161780,11.5
15760,1585,1,74,97.9,0,25719,5.7,215134,161369,11.5
15770,1586,1,74,97.9,0,29769,5.7,214866,160958,11.5
15780,1587,1,74,97.9,0,34004,5.7,214597,160634,11.5
15790,1588,1,74,97.9,0,38276,5.7,214413,160366,11.5
15800,1589,1,74,97.9,0,42449,5.7,214265,160155,11.5
15810,1590,1,74,97.9,0,46408,5.7,214104,159975,11.5
15820,1591,1,74,97.9,0,50039,5.7,214041,159854,11.5
15830,1592,1,74,97.9,0,53260,5.7,213960,159796,11.5
15840,1593,1,74,97.9,0,56014,5.7,213987,159835,11.5
15850,1594,1,74,97.9,0,58272,5.7,214065,159939,11.5
15860,1595,1,74,97.9,0,60023,5.7,214295,160197,11.5
15870,1596,1,74,97.9,0,61276,5.7,214575,160585,11.5
15880,1597,1,74,97.9,0,62055,5.7,214942,161084,11.5
15890,1598,1,74,97.9,0,62258,5.7,215341,161593,11.5
15900,1599,1,74,97.9,0,62197,5.7,215680,162120,11.5
15910,1600,1,74,97.9,8,61777,5.7,216101,162551,11.5
15920,1601,1,74,97.9,0,61049,5.7,216347,162966,11.5
15930,1602,1,74,97.8,0,60050,5.7,216696,163330,11.5
15940,1603,1,74,97.8,0,58833,5.7,216895,163685,11.5
15950,1604,1,74,97.8,0,57445,5.7,217178,163899,11.5
15960,1605,1,74,97.8,0,55931,5.7,217316,164187,11.5
15970,1606,1,74,97.8,0,54341,5.7,217567,164402,11.5
15980,1607,1,74,97.8,0,52712,5.7,217702,164679,11.5
15990,1608,1,74,97.8,0,51084,5.7,217948,164895,11.5
16000,1609,1,74,97.8,0,49488,5.7,218093,165200,11.5
16010,1610,1,74,97.8,0,47952,5.7,218328,165445,11.5
16020,1611,1,74,97.8,0,46499,5.7,218529,165756,11.5
16030,1612,1,74,97.8,0,45138,5.7,218802,166039,11.5
16040,1613,1,74,97.8,0,43881,5.7,219011,166374,11.5
16050,1614,1,74,97.8,0,42717,5.7,219274,166778,11.5
16060,1615,1,74,97.8,0,41645,5.7,219580,167152,11.5
16070,1616,1,74,97.8,0,40660,5.7,219885,167542,11.5
16080,1617,1,74,97.8,0,39735,5.7,220203,167959,11.5
16090,1618,1,74,97.8,0,38870,5.7,220521,168403,11.5
16100,1619,1,74,97.8,0,38030,5.7,220836,168857,11.5
16110,1620,1,74,97.8,0,37193,5.7,221229,169334,11.5
16120,1621,1,74,97.8,0,36348,5.7,221584,169812,11.5
16130,1622,1,74,97.8,0,35477,5.7,221918,170261,11.5
16140,1623,1,74,97.8,0,34575,5.7,222223,170731,11.5
16150,1624,1,74,97.8,0,33625,5.7,222637,171202,11.5
16160,1625,1,74,97.8,0,32619,5.7,222972,171702,11.5
16170,1626,1,74,97.8,0,31558,5.7,223285,172114,11.5
16180,1627,1,74,97.8,0,30437,5.7,223599,172536,11.5
16190,1628,1,74,97.8,0,29260,5.7,223926,172951,11.5
16200,1629,1,74,97.8,0,28039,5.7,224233,173312,11.5
16210,1630,1,74,97.8,0,26791,5.7,224475,173708,11.5
16220,1631,1,74,97.8,0,25517,5.7,224778,174043,11.5
16230,1632,1,74,97.8,0,24240,5.7,225005,174363,11.5
16240,1633,1,74,97.8,0,22978,5.7,225246,174676,11.5
16250,1634,1,74,97.8,0,21736,5.7,225511,174990,11.5
16260,1635,1,74,97.8,0,20526,5.7,225706,175286,11.5
16270,1636,1,74,97.8,0,19373,5.7,225905,175566,11.5
16280,1637,1,74,97.8,0,18282,5.7,226170,175882,11.5
16290,1638,1,74,97.8,0,17248,5.7,226392,176140,11.5
16300,1639,1,74,97.8,0,16282,5.7,226561,176412,11.5
16310,1640,1,74,97.8,0,15392,5.7,226767,176679,11.5
16320,1641,1,74,97.8,0,14582,5.7,226928,176882,11.5
16330,1642,1,74,97.8,0,13842,5.7,227154,177160,11.5
16340,1643,1,74,97.8,0,13166,5.7,227374,177452,11.5
16350,1644,1,74,97.8,0,12554,5.7,227557,177709,11.5
16360,1645,1,74,97.8,0,12000,5.7,227753,177971,11.5
16370,1646,1,74,97.8,0,11487,5.7,227900,178182,11.5
16380,1647,1,74,97.8,0,11020,5.7,228106,178445,11.5
16390,1648,1,74,97.8,0,10583,5.7,228276,178673,11.5
16400,1649,1,74,97.8,0,10176,5.7,228464,178890,11.5
16410,1650,1,74,97.8,0,9786,5.7,228625,179067,11.5
16420,1651,1,74,97.8,0,9420,5.7,228712,179204,11.5
16430,1652,1,74,97.8,0,9066,5.7,228675,179217,11.5
16440,1653,1,74,97.8,0,8730,5.7,228556,178947,11.5
16450,1654,1,74,97.8,0,8411,5.7,227878,178021,11.5
16460,1655,1,74,97.8,0,8140,5.7,226530,176088,11.5
16470,1656,1,74,97.8,0,7950,5.7,224531,173461,11.5
16480,1657,1,74,97.8,0,7907,5.7,222420,170691,11.5
16490,1658,1,74,97.8,0,8110,5.7,220572,168424,11.5
16500,1659,1,74,97.8,0,8658,5.7,219310,166728,11.5
16510,1660,1,74,97.8,0,9663,5.7,218320,165360,11.5
16520,1661,1,74,97.8,0,11205,5.7,217490,164446,11.5
16530,1662,1,74,97.8,0,13334,5.7,216923,163596,11.5
16540,1663,1,74,97.8,0,16061,5.7,216473,162995,11.5
16550,1664,1,74,97.8,0,19349,5.7,216064,162476,11.5
16560,1665,1,74,97.8,0,23111,5.7,215754,162000,11.5
16570,1666,1,74,97.8,0,27260,5.7,215456,161668,11.5
16580,1667,1,74,97.8,0,31650,5.7,215207,161338,11.5
16590,1668,1,74,97.8,0,36152,5.7,215005,161066,11.5
16600,1669,1,74,97.8,0,40609,5.7,214834,160801,11.5
16610,1670,1,74,97.8,0,44892,5.7,214669,160645,11.5
16620,1671,1,74,97.8,0,48872,5.7,214590,160519,11.5
16630,1672,1,74,97.8,0,52462,5.7,214539,160455,11.5
16640,1673,1,74,97.8,0,55582,5.7,214559,160476,11.5
16650,1674,1,74,97.8,0,58183,5.7,214643,160644,11.5
16660,1675,1,74,97.8,0,60247,5.7,214835,160919,11.5
16670,1676,1,74,97.8,0,61772,5.7,215136,161316,11.5
16680,1677,1,74,97.8,0,62258,5.7,215495,161730,11.5
16690,1678,1,74,97.8,0,62258,5.7,215843,162218,11.5
16700,1679,1,74,97.8,0,62223,5.7,216200,162668,11.5
16710,1680,1,74,97.8,8,61886,5.7,216532,163068,11.5
16720,1681,1,74,97.8,0,61199,5.7,216835,163466,11.5
16730,1682,1,74,97.8,0,60222,5.7,217044,163729,11.5
16740,1683,1,74,97.8,0,59011,5.7,217248,164012,11.5
16750,1684,1,74,97.8,0,57618,5.7,217402,164192,11.5
16760,1685,1,74,97.8,0,56090,5.7,217508,164391,11.5
16770,1686,1,74,97.8,0,54482,5.7,217640,164544,11.5
16780,1687,1,74,97.8,0,52846,5.7,217792,164737,11.5
16790,1688,1,74,97.8,0,51227,5.7,217953,164928,11.5
16800,1689,1,74,97.8,0,49665,5.7,218104,165169,11.5
16810,1690,1,74,97.8,0,48171,5.7,218293,165384,11.5
16820,1691,1,74,97.8,0,46780,5.7,218466,165638,11.5
16830,1692,1,74,97.8,0,45508,5.7,218699,165897,11.5
16840,1693,1,74,97.8,0,44350,5.7,218830,166162,11.5
16850,1694,1,74,97.8,0,43305,5.7,219093,166464,11.5
16860,1695,1,74,97.8,0,42369,5.7,219356,166788,11.5
16870,1696,1,74,97.8,0,41523,5.7,219648,167164,11.5
16880,1697,1,74,97.8,0,40746,5.7,219884,167556,11.5
16890,1698,1,74,97.8,0,40018,5.7,220188,167970,11.5
16900,1699,1,74,97.8,0,39324,5.7,220556,168391,11.5
16910,1700,1,74,97.8,0,38622,5.7,220815,168835,11.5
16920,1701,1,74,97.8,0,37913,5.7,221235,169293,11.5
16930,1702,1,74,97.8,0,37160,5.7,221565,169766,11.3
16940,1703,1,74,97.8,0,36358,5.7,221906,170201,11.3
16950,1704,1,74,97.8,0,35488,5.7,222256,170652,11.3
16960,1705,1,74,97.8,0,34551,5.7,222598,171074,11.3
16970,1706,1,74,97.8,0,33540,5.7,222904,171570,11.3
16980,1707,1,74,97.8,0,32460,5.7,223224,171977,11.3
16990,1708,1,74,97.8,0,31304,5.7,223560,172403,11.3
17000,1709,1,74,97.8,0,30091,5.7,223862,172839,11.3
17010,1710,1,74,97.8,0,28832,5.7,224222,173249,11.3
17020,1711,1,74,97.8,0,27540,5.7,224439,173611,11.3
17030,1712,1,74,97.8,0,26214,5.7,224684,173964,11.3
17040,1713,1,74,97.8,0,24884,5.7,225014,174317,11.3
17050,1714,1,74,97.8,0,23564,5.7,225217,174614,11.3
17060,1715,1,74,97.8,0,22270,5.7,225449,174957,11.3
17070,1716,1,74,97.8,0,21016,5.7,225649,175213,11.3
17080,1717,1,74,97.8,0,19809,5.7,225890,175530,11.3
17090,1718,1,74,97.8,0,18653,5.7,226127,175818,11.3
17100,1719,1,74,97.8,0,17569,5.7,226286,176076,11.3
17110,1720,1,74,97.8,0,16550,5.7,226467,176337,11.3
17120,1721,1,74,97.8,0,15608,5.7,226694,176614,11.3
17130,1722,1,74,97.8,0,14744,5.7,226823,176869,11.3
17140,1723,1,74,97.8,0,13959,5.7,227036,177091,11.3
17150,1724,1,74,97.8,0,13233,5.7,227205,177346,11.3
17160,1725,1,74,97.8,0,12580,5.7,227438,177651,11.3
17170,1726,1,74,97.8,0,11982,5.7,227646,177880,11.3
17180,1727,1,74,97.8,0,11438,5.7,227813,178148,11.3
17190,1728,1,74,97.8,0,10936,5.7,228003,178351,11.3
17200,1729,1,74,97.8,0,10471,5.7,228158,178548,11.3
17210,1730,1,74,97.8,0,10037,5.7,228262,178710,11.3
17220,1731,1,74,97.8,0,9639,5.7,228254,178737,11.3
17230,1732,1,74,97.8,0,9254,5.7,228089,178467,11.3
17240,1733,1,74,97.8,0,8905,5.7,227529,177548,11.3
17250,1734,1,74,97.8,0,8605,5.7,226037,175585,11.3
17260,1735,1,74,97.8,0,8384,5.7,224047,172895,11.3
17270,1736,1,74,97.8,0,8321,5.7,221946,170146,11.3
17280,1737,1,74,97.8,0,8507,5.7,220120,167851,11.3
17290,1738,1,74,97.8,0,9051,5.7,218822,166170,11.3
17300,1739,1,74,97.8,0,10074,5.7,217775,164797,11.3
17310,1740,1,74,97.8,0,11667,5.7,217012,163753,11.3
17320,1741,1,74,97.8,0,13863,5.7,216365,162883,11.3
17330,1742,1,74,97.8,0,16679,5.7,215823,162208,11.3
17340,1743,1,74,97.8,0,20089,5.7,215404,161620,11.3
17350,1744,1,74,97.8,0,24005,5.7,214984,161123,11.3
17360,1745,1,74,97.8,0,28327,5.7,214687,160659,11.3
17370,1746,1,74,97.8,0,32926,5.7,214350,160297,11.3
17380,1747,1,74,97.8,0,37653,5.7,214147,159966,11.3
17390,1748,1,74,97.8,0,42363,5.7,213926,159694,11.3
17400,1749,1,74,97.8,0,46896,5.7,213748,159465,11.3
17410,1750,1,74,97.8,0,51133,5.7,213561,159263,11.3
17420,1751,1,74,97.8,0,54976,5.7,213464,159092,11.3
17430,1752,1,74,97.8,0,58343,5.7,213356,159067,11.3
17440,1753,1,74,97.8,0,61182,5.7,213441,159077,11.3
17450,1754,1,74,97.8,0,62258,5.7,213550,159234,11.3
17460,1755,1,74,97.8,0,62258,5.7,213794,159534,11.3
17470,1756,1,74,97.8,0,62258,5.7,214070,159885,11.3
17480,1757,1,74,97.8,0,62258,5.7,214393,160303,11.3
17490,1758,1,74,97.8,0,62258,5.7,214747,160763,11.3
17500,1759,1,74,97.8,0,62111,5.7,215020,161197,11.3
17510,1760,1,74,97.8,8,61649,5.7,215328,161612,11.3
17520,1761,1,74,97.8,0,60921,5.7,215609,161960,11.3
17530,1762,1,74,97.8,0,59969,5.7,215885,162264,11.3
17540,1763,1,74,97.8,0,58834,5.7,216098,162547,11.3
17550,1764,1,74,97.8,0,57558,5.7,216341,162799,11.3
17560,1765,1,74,97.8,0,56190,5.7,216454,163053,11.3
17570,1766,1,74,97.8,0,54764,5.7,216581,163228,11.3
17580,1767,1,74,97.8,0,53313,5.7,216753,163464,11.3
17590,1768,1,74,97.8,0,51873,5.7,216940,163704,11.3
17600,1769,1,74,97.8,0,50469,5.7,217106,163956,11.3
17610,1770,1,74,97.8,0,49123,5.7,217331,164211,11.3
17620,1771,1,74,97.8,0,47854,5.7,217570,164516,11.3
17630,1772,1,74,97.8,0,46664,5.7,217778,164802,11.3
17640,1773,1,74,97.8,0,45557,5.7,218035,165125,11.3
17650,1774,1,74,97.8,0,44539,5.7,218294,165487,11.3
17660,1775,1,74,97.8,0,43593,5.7,218550,165836,11.3
17670,1776,1,74,97.8,0,42709,5.7,218848,166242,11.3
17680,1777,1,74,97.8,0,41871,5.7,219124,166671,11.3
17690,1778,1,74,97.8,0,41063,5.7,219501,167102,11.3
17700,1779,1,74,97.8,0,40275,5.7,219808,167570,11.3
17710,1780,1,74,97.8,0,39485,5.7,220167,168022,11.3
17720,1781,1,74,97.8,0,38682,5.7,220553,168513,11.3
17730,1782,1,74,97.8,0,37839,5.7,220889,168998,11.3
17740,1783,1,74,97.8,0,36961,5.7,221252,169459,11.3
17750,1784,1,74,97.8,0,36033,5.7,221672,169931,11.3
17760,1785,1,74,97.8,0,35047,5.7,221977,170403,11.3
17770,1786,1,74,97.8,0,34004,5.7,222326,170858,11.3
17780,1787,1,74,97.8,0,32908,5.7,222668,171337,11.3
17790,1788,1,74,97.8,0,31764,5.7,222984,171776,11.3
17800,1789,1,74,97.8,0,30573,5.7,223329,172205,11.3
17810,1790,1,74,97.8,0,29345,5.7,223670,172640,11.3
17820,1791,1,74,97.8,0,28091,5.7,223932,173016,11.3
17830,1792,1,74,97.8,0,26828,5.7,224220,173370,11.3
17840,1793,1,74,97.8,0,25567,5.7,224511,173711,11.3
17850,1794,1,74,97.8,0,24314,5.7,224764,174068,11.3
17860,1795,1,74,97.8,0,23091,5.7,224993,174436,11.3
17870,1796,1,74,97.8,0,21904,5.7,225220,174722,11.3
17880,1797,1,74,97.8,0,20759,5.7,225431,174982,11.3
17890,1798,1,74,97.8,0,19673,5.7,225626,175295,11.3
17900,1799,1,74,97.8,0,18645,5.7,225873,175574,11.3
17910,1800,1,74,97.8,0,17678,5.7,226104,175897,11.3
17920,1801,1,74,97.8,0,16786,5.7,226279,176158,11.3
17930,1802,1,74,97.9,0,15955,5.7,226502,176415,11.3
17940,1803,1,74,97.9,0,15201,5.7,226644,176643,11.3
17950,1804,1,74,97.9,0,14501,5.7,226922,176943,11.3
17960,1805,1,74,97.9,0,13868,5.7,227135,177184,11.3
17970,1806,1,74,97.9,0,13279,5.7,227295,177432,11.3
17980,1807,1,74,97.9,0,12745,5.9,227434,177720,11.3
17990,1808,1,74,97.9,0,12256,5.9,227687,177965,11.3
18000,1809,1,74,97.9,0,11800,5.9,227864,178210,11.3
18010,1810,1,74,97.9,0,11372,5.9,228026,178411,11.3
18020,1811,1,74,97.9,0,10972,5.9,228154,178548,11.3
18030,1812,1,74,97.9,0,10600,5.9,228198,178668,11.3
18040,1813,1,74,97.9,0,10244,5.9,228147,178576,11.3
18050,1814,1,74,97.9,0,9911,5.9,227792,178139,11.3
18060,1815,1,74,97.9,0,9607,5.9,226839,176718,11.3
18070,1816,1,74,97.9,0,9358,5.9,225129,174390,11.3
18080,1817,1,74,97.9,0,9220,5.9,223054,171650,11.3
18090,1818,1,74,97.9,0,9261,5.9,221048,169157,11.3
18100,1819,1,74,97.9,0,9574,5.9,219512,167189,11.3
18110,1820,1,74,97.9,0,10266,5.9,218385,165734,11.3
18120,1821,1,74,97.9,0,11426,5.9,217544,164565,11.3
18130,1822,1,74,97.9,0,13122,5.9,216866,163697,11.3
18140,1823,1,74,97.9,0,15387,5.9,216341,162987,11.3
18150,1824,1,74,97.9,0,18201,5.9,215880,162417,11.3
18160,1825,1,74,97.9,0,21505,5.9,215529,161917,11.3
18170,1826,1,74,97.9,0,25218,5.9,215166,161474,11.3
18180,1827,1,74,97.9,0,29228,5.9,214923,161119,11.3
18190,1828,1,74,97.9,0,33420,5.9,214673,160813,11.3
18200,1829,1,74,97.9,0,37650,5.9,214461,160541,11.3
18210,1830,1,74,97.9,0,41796,5.9,214302,160324,11.3
18220,1831,1,74,97.9,0,45718,5.9,214155,160152,11.3
18230,1832,1,74,97.9,0,49317,5.9,214077,160027,11.3
18240,1833,1,74,97.9,0,52517,5.9,214038,159984,11.3
18250,1834,1,74,97.9,0,55263,5.9,214028,160000,11.3
18260,1835,1,74,97.9,0,57516,5.9,214154,160161,11.3
18270,1836,1,74,97.9,0,59267,5.9,214379,160435,11.3
18280,1837,1,74,97.9,0,60524,5.9,214628,160816,11.3
18290,1838,1,74,97.9,0,61303,5.9,214989,161269,11.3
18300,1839,1,74,97.9,0,61655,5.9,215377,161789,11.3
18310,1840,1,74,97.9,0,61600,5.9,215786,162256,11.3
18320,1841,1,74,97.9,8,61188,5.9,216106,162704,11.3
18330,1842,1,74,97.9,0,60459,5.9,216450,163137,11.3
18340,1843,1,74,97.9,0,59466,5.9,216781,163503,11.3
18350,1844,1,74,97.9,0,58253,5.9,217053,163862,11.3
18360,1845,1,74,97.9,0,56865,5.9,217253,164114,11.3
18370,1846,1,74,97.9,0,55354,5.9,217435,164369,11.3
18380,1847,1,74,97.9,0,53764,5.9,217621,164613,11.3
18390,1848,1,74,97.9,0,52135,5.9,217805,164843,11.3
18400,1849,1,74,97.9,0,50494,5.9,218004,165115,11.3
18410,1850,1,74,97.9,0,48881,5.9,218231,165382,11.3
18420,1851,1,74,97.9,0,47335,5.9,218393,165688,11.3
18430,1852,1,74,97.9,0,45862,5.9,218623,165974,11.3
18440,1853,1,74,97.9,0,44483,5.9,218841,166265,11.3
18450,1854,1,74,97.9,0,43206,5.9,219123,166628,11.3
18460,1855,1,74,97.9,0,42017,5.9,219354,166992,11.3
18470,1856,1,74,97.9,0,40917,5.9,219695,167395,11.3
18480,1857,1,74,97.9,0,39907,5.9,220018,167808,11.3
18490,1858,1,74,97.9,0,38951,5.9,220332,168207,11.3
18500,1859,1,74,97.9,0,38051,5.9,220578,168678,11.3
18510,1860,1,74,97.9,0,37177,5.9,221022,169141,11.3
18520,1861,1,74,97.9,0,36311,5.9,221331,169606,11.3
18530,1862,1,74,97.9,0,35437,5.9,221736,170094,11.3
18540,1863,1,74,97.9,0,34537,5.9,222049,170536,11.3
18550,1864,1,74,97.9,0,33593,5.9,222426,171063,11.3
18560,1865,1,74,97.9,0,32604,5.9,222814,171509,11.3
18570,1866,1,74,97.9,0,31565,5.9,223163,171972,11.3
18580,1867,1,74,97.9,0,30463,5.9,223531,172373,11.3
18590,1868,1,74,97.9,0,29311,5.9,223805,172822,11.3
18600,1869,1,74,97.9,0,28102,5.9,224089,173234,11.3
18610,1870,1,74,97.9,0,26860,5.9,224348,173617,11.3
18620,1871,1,74,97.9,0,25586,5.9,224602,173939,11.3
18630,1872,1,74,97.9,0,24296,5.9,224862,174257,11.3
18640,1873,1,74,97.9,0,23004,5.9,225084,174630,11.3
18650,1874,1,74,97.9,0,21721,5.9,225381,174938,11.3
18660,1875,1,74,97.9,0,20471,5.9,225579,175207,11.3
18670,1876,1,74,97.9,0,19267,5.9,225743,175476,11.3
18680,1877,1,74,97.9,0,18115,5.9,225966,175779,11.3
18690,1878,1,74,97.9,0,17021,5.9,226184,176051,11.3
18700,1879,1,74,97.9,0,16003,5.9,226426,176354,11.3
18710,1880,1,74,97.9,0,15062,5.9,226564,176590,11.3
18720,1881,1,74,97.9,0,14198,5.9,226772,176824,11.3
18730,1882,1,74,97.9,0,13406,5.9,226936,177096,11.3
18740,1883,1,74,97.9,0,12696,5.9,227198,177334,11.3
18750,1884,1,74,97.9,0,12052,5.9,227378,177614,11.3
18760,1885,1,74,97.9,0,11468,5.9,227561,177836,11.3
18770,1886,1,74,97.9,0,10938,5.9,227754,178110,11.3
18780,1887,1,74,97.9,0,10455,5.9,227973,178365,11.3
18790,1888,1,74,97.9,0,10015,5.9,228086,178568,11.3
18800,1889,1,74,97.9,0,9611,5.9,228285,178755,11.3
18810,1890,1,74,97.9,0,9225,5.9,228384,178960,11.3
18820,1891,1,74,97.9,0,8869,5.9,228386,178984,11.3
18830,1892,1,74,97.9,0,8525,5.9,228295,178854,11.3
18840,1893,1,74,97.9,0,8206,5.9,227909,178223,11.3
18850,1894,1,74,97.9,0,7917,5.9,226753,176611,11.3
18860,1895,1,74,97.9,0,7694,5.9,224965,174152,11.3
18870,1896,1,74,97.9,0,7597,5.9,222813,171378,11.3
18880,1897,1,74,97.9,0,7703,5.9,220907,168961,11.3
18890,1898,1,74,97.9,0,8133,5.9,219412,167057,11.3
18900,1899,1,74,97.9,0,8987,5.9,218337,165633,11.3
18910,1900,1,74,97.9,0,10362,5.9,217509,164553,11.3
18920,1901,1,74,97.9,0,12324,5.9,216893,163729,11.3
18930,1902,1,74,97.9,0,14891,5.9,216313,163051,11.3
18940,1903,1,74,97.9,0,18043,5.9,215916,162459,11.3
18950,1904,1,74,97.9,0,21710,5.9,215578,162024,11.3
18960,1905,1,74,97.9,0,25811,5.9,215304,161628,11.3
18970,1906,1,74,97.9,0,30207,5.9,215004,161284,11.3
18980,1907,1,74,97.9,0,34764,5.9,214734,160954,11.3
18990,1908,1,74,97.9,0,39330,5.9,214613,160718,11.3
19000,1909,1,74,97.9,0,43762,5.9,214503,160532,11.3
19010,1910,1,74,97.9,0,47934,5.9,214279,160393,11.3
19020,1911,1,74,97.9,0,51727,5.9,214272,160256,11.3
19030,1912,1,74,97.9,0,55070,5.9,214244,160275,11.3
19040,1913,1,74,97.9,0,57900,5.9,214329,160337,11.3
19050,1914,1,74,97.9,0,60187,5.9,214441,160571,11.3
19060,1915,1,74,97.9,0,61928,5.9,214719,160898,11.3
19070,1916,1,74,97.9,0,62258,5.9,215040,161329,11.3
19080,1917,1,74,97.9,0,62258,5.9,215404,161774,11.3
19090,1918,1,74,97.9,0,62258,5.9,215736,162198,11.3
19100,1919,1,74,97.9,0,62069,5.9,216117,162704,11.3
19110,1920,1,74,97.9,8,61525,5.9,216392,163065,11.3
19120,1921,1,74,97.9,0,60667,5.9,216649,163378,11.3
19130,1922,1,74,97.9,0,59553,5.9,216879,163669,11.3
19140,1923,1,74,97.9,0,58240,5.9,217064,163916,11.3
19150,1924,1,74,97.9,0,56779,5.9,217216,164083,11.3
19160,1925,1,74,97.9,0,55222,5.9,217321,164275,11.3
19170,1926,1,74,97.9,0,53614,5.9,217497,164480,11.3
19180,1927,1,74,97.9,0,51995,5.9,217707,164681,11.3
19190,1928,1,74,97.9,0,50410,5.9,217782,164852,11.3
19200,1929,1,74,97.9,0,48893,5.9,217931,165052,11.3
19210,1930,1,74,97.9,0,47462,5.9,218120,165289,11.3
19220,1931,1,74,97.9,0,46133,5.9,218310,165591,11.3
19230,1932,1,74,97.9,0,44923,5.9,218547,165871,11.3
19240,1933,1,74,97.9,0,43827,5.9,218735,166165,11.3
19250,1934,1,74,97.9,0,42834,5.9,219006,166493,11.3
19260,1935,1,74,97.9,0,41943,5.9,219280,166830,11.3
19270,1936,1,74,97.9,0,41119,5.9,219557,167250,11.3
19280,1937,1,74,97.9,0,40358,5.9,219981,167654,11.3
19290,1938,1,74,97.9,0,39629,5.9,220221,168085,11.3
19300,1939,1,74,97.9,0,38917,5.9,220562,168509,11.3
19310,1940,1,74,97.9,0,38190,5.9,220885,168960,11.3
19320,1941,1,74,97.9,0,37444,5.9,221220,169396,11.3
19330,1942,1,74,97.9,0,36643,5.9,221545,169875,11.3
19340,1943,1,74,97.9,0,35786,5.9,221901,170290,11.3
19350,1944,1,74,97.9,0,34862,5.9,222250,170772,11.3
19360,1945,1,74,97.9,0,33864,5.9,222620,171255,11.3
19370,1946,1,74,97.9,0,32802,5.9,223002,171690,11.3
19380,1947,1,74,97.9,0,31666,5.9,223154,172083,11.3
19390,1948,1,74,97.9,0,30472,5.9,223590,172518,11.3
19400,1949,1,74,97.9,0,29221,5.9,223847,172905,11.3
19410,1950,1,74,97.9,0,27935,5.9,224162,173292,11.3
19420,1951,1,74,97.9,0,26622,5.9,224373,173635,11.3
19430,1952,1,74,97.9,0,25306,5.9,224678,173981,11.3
19440,1953,1,74,97.9,0,23992,5.9,224936,174329,11.3
19450,1954,1,74,97.9,0,22700,5.9,225149,174607,11.3
19460,1955,1,74,97.9,0,21429,5.9,225361,174923,11.3
19470,1956,1,74,97.9,0,20216,5.9,225618,175226,11.3
19480,1957,1,74,97.9,0,19061,5.9,225701,175514,11.3
19490,1958,1,74,97.9,0,17965,5.9,226051,175774,11.3
19500,1959,1,74,97.9,0,16940,5.9,226163,176047,11.3
19510,1960,1,74,97.9,0,15981,5.9,226401,176319,11.3
19520,1961,1,74,97.9,0,15100,5.9,226613,176582,11.3
19530,1962,1,74,97.9,0,14296,5.9,226807,176806,11.3
19540,1963,1,74,97.9,0,13559,5.9,226955,177040,11.3
19550,1964,1,74,97.9,0,12888,5.9,227139,177332,11.3
19560,1965,1,74,97.9,0,12277,5.9,227395,177544,11.3
19570,1966,1,74,97.9,0,11715,5.9,227561,177799,11.3
19580,1967,1,74,97.9,0,11195,5.9,227721,178072,11.3
19590,1968,1,74,97.9,0,10724,5.9,227879,178237,11.3
19600,1969,1,74,97.9,0,10284,5.9,227986,178456,11.3
19610,1970,1,74,97.9,0,9874,5.9,228005,178439,11.3
19620,1971,1,74,97.9,0,9482,5.9,227903,178327,11.3
19630,1972,1,74,97.9,0,9121,5.9,227448,177581,11.3
19640,1973,1,74,97.9,0,8797,5.9,226175,175852,11.3
19650,1974,1,74,97.9,0,8551,5.9,224282,173284,11.3
19660,1975,1,74,97.9,0,8440,5.9,222091,170511,11.3
19670,1976,1,74,97.9,0,8553,5.9,220217,168123,11.3
19680,1977,1,74,97.9,0,9005,5.9,218777,166248,11.3
19690,1978,1,74,97.9,0,9907,5.9,217696,164855,11.3
19700,1979,1,74,97.9,0,11355,5.9,216838,163765,11.3
19710,1980,1,74,97.9,0,13404,5.9,216146,162863,11.3
19720,1981,1,74,97.9,0,16080,5.9,215598,162129,11.3
19730,1982,1,74,97.9,0,19355,5.9,215128,161529,11.3
19740,1983,1,74,97.9,0,23159,5.9,214766,161017,11.3
19750,1984,1,74,97.9,0,27387,5.9,214434,160560,11.3
19760,1985,1,74,97.9,0,31922,5.9,214097,160153,11.3
19770,1986,1,74,97.9,0,36614,5.9,213806,159792,11.3
19780,1987,1,74,97.9,0,41327,5.9,213593,159528,11.3
19790,1988,1,74,97.9,0,45902,5.9,213432,159233,11.3
19800,1989,1,74,97.9,0,50212,5.9,213203,159009,11.3
19810,1990,1,74,97.9,0,54148,5.9,213074,158819,11.3
19820,1991,1,74,97.9,0,57626,5.9,213006,158739,11.3
19830,1992,1,74,97.9,0,60589,5.9,213000,158742,11.3
19840,1993,1,74,97.9,0,62258,5.9,213056,158816,11.3
19850,1994,1,74,97.9,0,62258,5.9,213237,159055,11.3
19860,1995,1,74,97.9,0,62258,5.9,213499,159403,11.3
19870,1996,1,74,97.9,0,62258,5.9,213835,159839,11.3
19880,1997,1,74,97.9,0,62258,5.9,214180,160280,11.3
19890,1998,1,74,97.9,0,62226,5.9,214535,160750,11.3
19900,1999,1,74,97.9,8,61881,5.9,214814,161130,11.3
19910,2000,1,74,97.9,0,61260,5.9,215099,161501,11.3
19920,2001,1,74,97.9,0,60399,5.9,215398,161813,11.3
19930,2002,1,74,97.9,0,59346,5.9,215563,162069,11.2
19940,2003,1,74,97.9,0,58138,5.9,215766,162337,11.2
19950,2004,1,74,97.9,0,56815,5.9,215951,162596,11.2
19960,2005,1,74,97.9,0,55426,5.9,216121,162806,11.2
19970,2006,1,74,97.9,0,54006,5.9,216295,163043,11.2
19980,2007,1,74,97.9,0,52576,5.9,216473,163285,11.2
19990,2008,1,74,97.9,0,51178,5.9,216658,163512,11.2
20000,2009,1,74,97.9,0,49815,5.9,216894,163772,11.2
20010,2010,1,74,97.9,0,48526,5.9,217080,164072,11.2
20020,2011,1,74,97.9,0,47314,5.9,217283,164402,11.2
20030,2012,1,74,97.9,0,46180,5.9,217602,164712,11.2
20040,2013,1,74,97.9,0,45129,5.9,217847,165106,11.2
20050,2014,1,74,97.9,0,44145,5.9,218148,165474,11.2
20060,2015,1,74,97.9,0,43218,5.9,218487,165870,11.2
20070,2016,1,74,97.9,0,42347,5.9,218775,166317,11.2
20080,2017,1,74,97.9,0,41506,5.9,219130,166799,11.2
20090,2018,1,74,97.9,0,40684,5.9,219492,167281,11.2
20100,2019,1,74,97.9,0,39866,5.9,219855,167798,11.2
20110,2020,1,74,97.9,0,39024,5.9,220249,168296,11.2
20120,2021,1,74,97.9,0,38148,5.9,220655,168800,11.2
20130,2022,1,74,97.9,0,37232,5.9,221029,169319,11.2
20140,2023,1,74,97.9,0,36265,5.9,221452,169822,11.2
20150,2024,1,74,97.9,0,35230,5.9,221796,170291,11.2
20160,2025,1,74,97.9,0,34133,5.9,222157,170797,11.2
20170,2026,1,74,97.9,0,32982,5.9,222497,171281,11.2
20180,2027,1,74,97.9,0,31769,5.9,222872,171702,11.2
20190,2028,1,74,97.9,0,30512,5.9,223161,172100,11.2
20200,2029,1,74,97.9,0,29224,5.9,223455,172505,11.2
20210,2030,1,74,97.9,0,27905,5.9,223737,172908,11.2
20220,2031,1,74,97.9,0,26588,5.9,224024,173242,11.2
20230,2032,1,74,97.9,0,25272,5.9,224254,173578,11.2
20240,2033,1,74,97.9,0,23976,5.9,224478,173916,11.2
20250,2034,1,74,97.9,0,22714,5.9,224736,174223,11.2
20260,2035,1,74,97.9,0,21499,5.9,224928,174514,11.2
20270,2036,1,74,97.9,0,20337,5.9,225191,174839,11.2
20280,2037,1,74,97.9,0,19245,5.9,225389,175023,11.2
20290,2038,1,74,97.9,0,18228,5.9,225619,175386,11.2
20300,2039,1,74,97.9,0,17287,5.9,225820,175686,11.2
20310,2040,1,74,97.9,0,16427,5.9,226008,175921,11.2
20320,2041,1,74,97.9,0,15643,5.9,226273,176238,11.2
20330,2042,1,74,97.9,0,14920,5.9,226448,176462,11.2
20340,2043,1,74,97.9,0,14274,5.9,226640,176748,11.2
20350,2044,1,74,97.9,0,13677,5.9,226839,176970,11.2
20360,2045,1,74,97.9,0,13134,5.9,227014,177254,11.2
20370,2046,1,74,97.9,0,12642,5.9,227239,177496,11.2
20380,2047,1,74,97.9,0,12183,5.9,227441,177673,11.2
20390,2048,1,74,97.9,0,11757,5.9,227651,178008,11.2
20400,2049,1,74,97.9,0,11358,5.9,227832,178213,11.2
20410,2050,1,74,97.9,0,10988,5.9,227938,178367,11.2
20420,2051,1,74,97.9,0,10623,5.9,227971,178482,11.2
20430,2052,1,74,97.9,0,10275,5.9,227883,178366,11.2
20440,2053,1,74,97.9,0,9949,5.9,227542,177858,11.2
20450,2054,1,74,97.9,0,9645,5.9,226582,176421,11.2
20460,2055,1,74,97.9,0,9398,5.9,224866,174077,11.2
20470,2056,1,74,97.9,0,9255,5.9,222656,171299,11.2
20480,2057,1,74,97.9,0,9301,5.9,220662,168677,11.2
20490,2058,1,74,97.9,0,9624,5.9,219186,166839,11.2
20500,2059,1,74,97.9,0,10330,5.9,218039,165376,11.2
20510,2060,1,74,97.9,0,11506,5.9,217122,164285,11.2
20520,2061,1,74,97.9,0,13216,5.9,216530,163368,11.2
20530,2062,1,74,97.9,0,15497,5.9,216019,162717,11.2
20540,2063,1,74,97.9,0,18320,5.9,215520,162160,11.2
20550,2064,1,74,97.9,0,21642,5.9,215169,161619,11.2
20560,2065,1,74,97.9,0,25366,5.9,214827,161226,11.2
20570,2066,1,74,97.9,0,29384,5.9,214577,160825,11.2
20580,2067,1,74,97.9,0,33574,5.9,214281,160582,11.2
20590,2068,1,74,97.9,0,37789,5.9,214174,160339,11.2
20600,2069,1,74,97.9,0,41910,5.9,214002,160117,11.2
20610,2070,1,74,97.9,0,45808,5.9,213850,159963,11.2
20620,2071,1,74,97.9,0,49379,5.9,213766,159851,11.2
20630,2072,1,74,97.9,0,52547,5.9,213676,159778,11.2
20640,2073,1,74,97.9,0,55246,5.9,213737,159832,11.2
20650,2074,1,74,97.9,0,57454,5.9,213872,159967,11.2
20660,2075,1,74,97.9,0,59158,5.9,214139,160343,11.2
20670,2076,1,74,97.9,0,60370,5.9,214450,160688,11.2
20680,2077,1,74,97.9,0,61117,5.9,214803,161215,11.2
20690,2078,1,74,97.9,0,61418,5.9,215138,161718,11.2
20700,2079,1,74,97.9,0,61323,5.9,215597,162235,11.2
20710,2080,1,74,97.9,8,60869,5.9,215962,162679,11.2
20720,2081,1,74,97.9,0,60105,5.9,216240,163081,11.2
20730,2082,1,74,97.9,0,59077,5.9,216492,163441,11.2
20740,2083,1,74,97.9,0,57825,5.9,216750,163746,11.2
20750,2084,1,74,97.9,0,56410,5.9,216994,164025,11.2
20760,2085,1,74,97.9,0,54867,5.9,217166,164283,11.2
20770,2086,1,74,97.9,0,53246,5.9,217359,164516,11.2
20780,2087,1,74,97.9,0,51590,5.9,217506,164772,11.2
20790,2088,1,74,97.9,0,49946,5.9,217729,164988,11.2
20800,2089,1,74,97.9,0,48340,5.9,217909,165257,11.2
20810,2090,1,74,97.9,0,46801,5.9,218109,165506,11.2
20820,2091,1,74,97.9,0,45345,5.9,218295,165799,11.2
20830,2092,1,74,97.9,0,43990,5.9,218557,166109,11.2
20840,2093,1,74,97.9,0,42734,5.9,218846,166443,11.2
20850,2094,1,74,97.9,0,41590,5.9,219113,166813,11.2
20860,2095,1,74,97.9,0,40529,5.9,219413,167234,11.2
20870,2096,1,74,97.9,0,39563,5.9,219699,167624,11.2
20880,2097,1,74,97.9,0,38657,5.9,220046,168085,11.2
20890,2098,1,74,97.9,0,37800,5.9,220378,168519,11.2
20900,2099,1,74,97.9,0,36969,5.9,220737,168944,11.2
20910,2100,1,74,97.9,0,36141,5.9,221113,169467,11.2
20920,2101,1,74,97.9,0,35299,5.9,221479,169980,11.2
20930,2102,1,74,97.9,0,34431,5.9,221845,170425,11.2
20940,2103,1,74,97.9,0,33520,5.9,222233,170897,11.2
20950,2104,1,74,97.9,0,32552,5.9,222568,171388,11.2
20960,2105,1,74,97.9,0,31517,5.9,222903,171826,11.2
20970,2106,1,74,97.9,0,30426,5.9,223263,172252,11.2
20980,2107,1,74,97.9,0,29267,5.9,223537,172677,11.2
20990,2108,1,74,97.9,0,28063,5.9,223897,173046,11.2
21000,2109,1,74,97.9,0,26808,5.9,224115,173454,11.2
21010,2110,1,74,97.9,0,25527,5.9,224449,173802,11.2
21020,2111,1,74,97.9,0,24225,5.9,224640,174124,11.2
21030,2112,1,74,97.9,0,22926,5.9,224904,174459,11.2
21040,2113,1,74,97.9,0,21637,5.9,225171,174796,11.2
21050,2114,1,74,97.9,0,20380,5.9,225358,175063,11.2
21060,2115,1,74,97.9,0,19169,5.9,225607,175385,11.2
21070,2116,1,74,97.9,0,18016,5.9,225815,175684,11.2
21080,2117,1,74,97.9,0,16926,5.9,225970,175875,11.2
21090,2118,1,74,97.9,0,15907,5.9,226242,176190,11.2
21100,2119,1,74,97.9,0,14964,5.9,226403,176468,11.2
21110,2120,1,74,97.9,0,14097,5.9,226660,176698,11.2
21120,2121,1,74,97.9,0,13314,5.9,226824,176939,11.2
21130,2122,1,74,97.9,0,12601,5.9,227019,177249,11.2
21140,2123,1,74,97.9,0,11960,5.9,227181,177504,11.2
21150,2124,1,74,97.9,0,11372,5.9,227413,177753,11.2
21160,2125,1,74,97.9,0,10844,5.9,227574,178007,11.2
21170,2126,1,74,97.9,0,10364,5.9,227776,178205,11.2
21180,2127,1,74,97.9,0,9919,5.9,227957,178486,11.2
21190,2128,1,74,97.9,0,9505,5.9,228161,178740,11.2
21200,2129,1,74,97.9,0,9121,5.9,228252,178918,11.2
21210,2130,1,74,97.9,0,8748,5.9,228389,179031,11.2
21220,2131,1,74,97.9,0,8400,5.9,228360,179034,11.2
21230,2132,1,74,97.9,0,8059,5.9,228153,178766,11.2
21240,2133,1,74,97.9,0,7741,5.9,227544,177894,11.2
21250,2134,1,74,97.9,0,7466,5.9,226200,175970,11.2
21260,2135,1,74,97.9,0,7274,5.9,224236,173348,11.2
21270,2136,1,74,97.9,0,7225,5.9,222067,170626,11.2
21280,2137,1,74,97.9,0,7427,5.9,220270,168383,11.2
21290,2138,1,74,97.9,0,7980,6.1,218934,166669,11.2
21300,2139,1,74,97.9,0,8992,6.1,217894,165377,11.2
21310,2140,1,74,97.9,0,10547,6.1,217183,164383,11.2
21320,2141,1,74,97.9,0,12698,6.1,216554,163588,11.2
21330,2142,1,74,97.9,0,15446,6.1,216097,162990,11.2
21340,2143,1,74,97.9,0,18765,6.1,215716,162456,11.2
21350,2144,1,74,97.9,0,22567,6.1,215417,162054,11.2
21360,2145,1,74,97.9,0,26750,6.1,215131,161686,11.2
21370,2146,1,74,97.9,0,31179,6.1,214886,161393,11.2
21380,2147,1,74,97.9,0,35726,6.1,214654,161060,11.2
21390,2148,1,74,97.9,0,40228,6.1,214484,160867,11.2
21400,2149,1,74,97.9,0,44560,6.1,214348,160706,11.2
21410,2150,1,74,97.9,0,48583,6.1,214251,160556,11.2
21420,2151,1,74,97.9,0,52215,6.1,214267,160537,11.2
21430,2152,1,74,97.9,0,55369,6.1,214301,160644,11.2
21440,2153,1,74,97.9,0,57994,6.1,214429,160812,11.2
21450,2154,1,74,97.9,0,60071,6.1,214693,161140,11.2
21460,2155,1,74,97.9,0,61595,6.1,215012,161541,11.2
21470,2156,1,74,97.9,0,62258,6.1,215332,161981,11.2
21480,2157,1,74,97.9,0,62258,6.1,215711,162482,11.2
21490,2158,1,74,97.9,0,62135,6.1,216104,163020,11.2
21500,2159,1,74,97.9,8,61748,6.1,216500,163458,11.2
21510,2160,1,74,97.9,0,61011,6.1,216847,163899,11.2
21520,2161,1,74,97.9,0,59965,6.1,217098,164227,11.2
21530,2162,1,74,97.9,0,58674,6.1,217345,164527,11.2
21540,2163,1,74,97.9,0,57173,6.1,217491,164815,11.2
21550,2164,1,74,97.9,0,55534,6.1,217663,165027,11.2
21560,2165,1,74,97.9,0,53807,6.1,217823,165232,11.2
21570,2166,1,74,97.9,0,52045,6.1,218054,165428,11.2
21580,2167,1,74,97.9,0,50283,6.1,218123,165657,11.2
21590,2168,1,74,97.9,0,48567,6.1,218314,165818,11.2
21600,2169,1,74,97.9,0,46932,6.1,218470,166054,11.2
21610,2170,1,74,97.9,0,45402,6.1,218701,166324,11.2
21620,2171,1,74,97.9,0,43987,6.1,218921,166588,11.2
21630,2172,1,74,97.9,0,42700,6.1,219140,166906,11.2
21640,2173,1,74,97.9,0,41541,6.1,219394,167231,11.2
21650,2174,1,74,97.9,0,40503,6.1,219586,167543,11.2
21660,2175,1,74,97.9,0,39576,6.1,219897,167926,11.2
21670,2176,1,74,97.9,0,38730,6.1,220161,168322,11.2
21680,2177,1,74,97.9,0,37947,6.1,220511,168747,11.2
21690,2178,1,74,97.9,0,37203,6.1,220841,169146,11.2
21700,2179,1,74,97.9,0,36475,6.1,221179,169593,11.2
21710,2180,1,74,97.9,0,35739,6.1,221498,170032,11.2
21720,2181,1,74,97.9,0,34976,6.1,221815,170453,11.2
21730,2182,1,74,97.9,0,34168,6.1,222153,170929,11.2
21740,2183,1,74,97.9,0,33315,6.1,222479,171327,11.2
21750,2184,1,74,97.9,0,32393,6.1,222803,171792,11.2
21760,2185,1,74,97.9,0,31400,6.1,223186,172229,11.2
21770,2186,1,74,97.9,0,30337,6.1,223441,172605,11.2
21780,2187,1,74,97.9,0,29204,6.1,223761,173026,11.2
21790,2188,1,74,97.9,0,28018,6.1,224033,173402,11.2
21800,2189,1,74,97.9,0,26792,6.1,224369,173753,11.2
21810,2190,1,74,97.9,0,25532,6.1,224583,174132,11.2
21820,2191,1,74,97.9,0,24258,6.1,224834,174444,11.2
21830,2192,1,74,97.9,0,22980,6.1,225045,174712,11.2
21840,2193,1,74,97.9,0,21718,6.1,225250,175023,11.2
21850,2194,1,74,97.9,0,20491,6.1,225532,175349,11.2
21860,2195,1,74,97.9,0,19305,6.1,225719,175602,11.2
21870,2196,1,74,97.9,0,18173,6.1,225881,175868,11.2
21880,2197,1,74,97.9,0,17101,6.1,226137,176130,11.2
21890,2198,1,74,97.9,0,16102,6.1,226323,176376,11.2
21900,2199,1,74,97.9,0,15177,6.1,226560,176672,11.2
21910,2200,1,74,97.9,0,14325,6.1,226706,176930,11.2
21920,2201,1,74,97.9,0,13541,6.1,226916,177153,11.2
21930,2202,1,74,97.9,0,12830,6.1,227077,177416,11.2
21940,2203,1,74,97.9,0,12194,6.1,227289,177628,11.2
21950,2204,1,74,97.9,0,11614,6.1,227457,177914,11.2
21960,2205,1,74,97.9,0,11083,6.1,227688,178150,11.2
21970,2206,1,74,97.9,0,10602,6.1,227849,178404,11.2
21980,2207,1,74,97.9,0,10152,6.1,228011,178583,11.2
21990,2208,1,74,97.9,0,9733,6.1,228107,178755,11.2
22000,2209,1,74,97.9,0,9339,6.1,228147,178785,11.2
22010,2210,1,74,97.9,0,8964,6.1,228030,178588,11.2
22020,2211,1,74,97.9,0,8615,6.1,227494,177805,11.2
22030,2212,1,74,97.9,0,8302,6.1,226218,175985,11.2
22040,2213,1,74,97.9,0,8071,6.1,224217,173340,11.2
22050,2214,1,74,97.9,0,7982,6.1,221920,170433,11.2
22060,2215,1,74,97.9,0,8130,6.1,219988,167968,11.2
22070,2216,1,74,97.9,0,8636,6.1,218471,166088,11.2
22080,2217,1,74,97.9,0,9615,6.1,217380,164675,11.2
22090,2218,1,74,97.9,0,11170,6.1,216534,163534,11.2
22100,2219,1,74,97.9,0,13364,6.1,215791,162617,11.2
22110,2220,1,74,97.9,0,16206,6.1,215264,161946,11.2
22120,2221,1,74,97.9,0,19673,6.1,214781,161321,11.2
22130,2222,1,74,97.9,0,23699,6.1,214410,160796,11.2
22140,2223,1,74,97.9,0,28167,6.1,214032,160272,11.2
22150,2224,1,74,97.9,0,32949,6.1,213737,159898,11.2
22160,2225,1,74,97.9,0,37886,6.1,213418,159562,11.2
22170,2226,1,74,97.9,0,42831,6.1,213183,159236,11.2
22180,2227,1,74,97.9,0,47621,6.1,212958,159034,11.2
22190,2228,1,74,97.9,0,52119,6.1,212807,158740,11.2
22200,2229,1,74,97.9,0,56215,6.1,212649,158619,11.2
22210,2230,1,74,97.9,0,59823,6.1,212542,158479,11.2
22220,2231,1,74,97.9,0,62258,6.1,212543,158477,11.2
22230,2232,1,74,97.9,0,62258,6.1,212590,158588,11.2
22240,2233,1,74,97.9,0,62258,6.1,212791,158834,11.2
22250,2234,1,74,97.9,0,62258,6.1,213058,159211,11.2
22260,2235,1,74,97.9,0,62258,6.1,213387,159641,11.2
22270,2236,1,74,97.9,0,62258,6.1,213779,160082,11.2
22280,2237,1,74,97.9,0,62193,6.1,214084,160512,11.2
22290,2238,1,74,97.9,8,61823,6.1,214410,160940,11.2
22300,2239,1,74,97.9,0,61184,6.1,214663,161241,11.2
22310,2240,1,74,97.9,0,60315,6.1,214922,161583,11.2
22320,2241,1,74,97.9,0,59268,6.1,215141,161820,11.2
22330,2242,1,74,97.9,0,58073,6.1,215313,162066,11.2
22340,2243,1,74,97.9,0,56778,6.1,215480,162271,11.2
22350,2244,1,74,97.9,0,55419,6.1,215617,162453,11.2
22360,2245,1,74,97.9,0,54037,6.1,215794,162642,11.2
22370,2246,1,74,97.9,0,52659,6.1,215937,162839,11.2
22380,2247,1,74,97.9,0,51317,6.1,216073,163040,11.2
22390,2248,1,74,97.9,0,50024,6.1,216233,163280,11.2
22400,2249,1,74,97.9,0,48806,6.1,216490,163577,11.2
22410,2250,1,74,97.9,0,47673,6.1,216705,163879,11.2
22420,2251,1,74,97.9,0,46625,6.1,216954,164171,11.2
22430,2252,1,74,97.9,0,45666,6.1,217243,164530,11.2
22440,2253,1,74,97.9,0,44776,6.1,217523,164894,11.2
22450,2254,1,74,97.9,0,43945,6.1,217840,165288,11.2
22460,2255,1,74,97.9,0,43169,6.1,218162,165707,11.2
22470,2256,1,74,97.9,0,42427,6.1,218472,166136,11.2
22480,2257,1,74,97.9,0,41699,6.1,218840,166598,11.2
22490,2258,1,74,97.9,0,40963,6.1,219149,167035,11.2
22500,2259,1,74,97.9,0,40211,6.1,219525,167535,11.2
22510,2260,1,74,97.9,0,39426,6.1,219881,168018,11.2
22520,2261,1,74,97.9,0,38599,6.1,220327,168477,11.2
22530,2262,1,74,97.9,0,37717,6.1,220614,168975,11.2
22540,2263,1,74,97.9,0,36777,6.1,221036,169451,11.2
22550,2264,1,74,97.9,0,35777,6.1,221356,169959,11.2
22560,2265,1,74,97.9,0,34718,6.1,221768,170389,11.2
22570,2266,1,74,97.9,0,33602,6.1,222083,170862,11.2
22580,2267,1,74,97.9,0,32442,6.1,222432,171317,11.2
22590,2268,1,74,97.9,0,31245,6.1,222751,171747,11.2
22600,2269,1,74,97.9,0,30019,6.1,223043,172102,11.2
22610,2270,1,74,97.9,0,28772,6.1,223356,172497,11.2
22620,2271,1,74,97.9,0,27527,6.1,223601,172880,11.2
22630,2272,1,74,97.9,0,26289,6.1,223913,173194,11.2
22640,2273,1,74,97.9,0,25068,6.1,224188,173564,11.2
22650,2274,1,74,97.9,0,23882,6.1,224421,173864,11.2
22660,2275,1,74,97.9,0,22739,6.1,224650,174191,11.2
22670,2276,1,74,97.9,0,21653,6.1,224867,174519,11.2
22680,2277,1,74,97.9,0,20616,6.1,225068,174778,11.2
22690,2278,1,74,97.9,0,19642,6.1,225259,175053,11.2
22700,2279,1,74,97.9,0,18734,6.1,225538,175354,11.2
22710,2280,1,74,97.9,0,17888,6.1,225738,175622,11.2
22720,2281,1,74,97.9,0,17116,6.1,225971,175920,11.2
22730,2282,1,74,97.9,0,16400,6.1,226137,176207,11.2
22740,2283,1,74,97.9,0,15748,6.1,226350,176433,11.2
22750,2284,1,74,97.9,0,15148,6.1,226491,176697,11.2
22760,2285,1,74,97.9,0,14595,6.1,226721,176927,11.2
22770,2286,1,74,97.9,0,14085,6.1,226903,177210,11.2
22780,2287,1,74,97.9,0,13611,6.1,227069,177447,11.2
22790,2288,1,74,97.9,0,13174,6.1,227244,177679,11.2
22800,2289,1,74,97.9,0,12754,6.1,227376,177828,11.2
22810,2290,1,74,97.9,0,12359,6.1,227448,177888,11.2
22820,2291,1,74,97.9,0,11987,6.1,227321,177726,11.2
22830,2292,1,74,97.9,0,11640,6.1,226786,176951,11.2
22840,2293,1,74,97.9,0,11337,6.1,225453,175093,11.2
22850,2294,1,74,97.9,0,11097,6.1,223422,172454,11.2
22860,2295,1,74,97.9,0,10984,6.1,221245,169658,11.2
22870,2296,1,74,97.9,0,11079,6.1,219312,167252,11.2
22880,2297,1,74,97.9,0,11483,6.1,217845,165439,11.2
22890,2298,1,74,97.9,0,12291,6.1,216731,164032,11.2
22900,2299,1,74,97.9,0,13594,6.1,215874,162928,11.2
22910,2300,1,74,97.9,0,15435,6.1,215181,162004,11.2
22920,2301,1,74,97.9,0,17827,6.1,214586,161243,11.2
22930,2302,1,74,98.0,0,20761,6.1,214102,160654,11.2
22940,2303,1,74,98.0,0,24165,6.1,213664,160048,11.2
22950,2304,1,74,98.0,0,27947,6.1,213287,159603,11.2
22960,2305,1,74,98.0,0,31999,6.1,213010,159189,11.2
22970,2306,1,74,98.0,0,36195,6.1,212669,158829,11.2
22980,2307,1,74,98.0,0,40398,6.1,212435,158510,11.2
22990,2308,1,74,98.0,0,44477,6.1,212230,158253,11.2
23000,2309,1,74,98.0,0,48324,6.1,212084,158028,11.2
23010,2310,1,74,98.0,0,51839,6.1,211881,157849,11.2
23020,2311,1,74,98.0,0,54943,6.1,211832,157754,11.2
23030,2312,1,74,98.0,0,57596,6.1,211825,157778,11.2
23040,2313,1,74,98.0,0,59772,6.1,211929,157874,11.2
23050,2314,1,74,98.0,0,61446,6.1,212102,158142,11.2
23060,2315,1,74,98.0,0,62258,6.1,212416,158531,11.2
23070,2316,1,74,98.0,0,62258,6.1,212775,159012,11.2
23080,2317,1,74,98.0,0,62258,6.1,213184,159499,11.2
23090,2318,1,74,98.0,0,62217,6.1,213592,160014,11.2
23100,2319,1,74,98.0,8,61852,6.1,213888,160521,11.2
23110,2320,1,74,98.0,0,61199,6.1,214308,160977,11.2
23120,2321,1,74,98.0,0,60301,6.1,214629,161309,11.2
23130,2322,1,74,98.0,0,59199,6.1,214858,161665,11.2
23140,2323,1,74,98.0,0,57928,6.1,215093,161945,11.2
23150,2324,1,74,98.0,0,56535,6.1,215327,162221,11.2
23160,2325,1,74,98.0,0,55061,6.1,215501,162494,11.2
23170,2326,1,74,98.0,0,53541,6.1,215722,162707,11.2
23180,2327,1,74,98.0,0,52000,6.1,215936,163001,11.2
23190,2328,1,74,98.0,0,50486,6.1,216130,163289,11.2
23200,2329,1,74,98.0,0,49006,6.1,216307,163570,11.2
23210,2330,1,74,98.0,0,47593,6.1,216565,163843,11.2
23220,2331,1,74,98.0,0,46256,6.1,216803,164178,11.2
23230,2332,1,74,98.0,0,45011,6.1,217062,164584,11.2
23240,2333,1,74,98.0,0,43857,6.1,217399,164984,11.2
23250,2334,1,74,98.0,0,42785,6.1,217678,165399,11.2
23260,2335,1,74,98.0,0,41783,6.1,218034,165837,11.2
23270,2336,1,74,98.0,0,40841,6.1,218416,166300,11.2
23280,2337,1,74,98.0,0,39939,6.1,218769,166752,11.2
23290,2338,1,74,98.0,0,39061,6.1,219088,167249,11.2
23300,2339,1,74,98.0,0,38196,6.1,219512,167758,11.2
23310,2340,1,74,98.0,0,37323,6.1,219873,168232,11.2
23320,2341,1,74,98.0,0,36426,6.1,220278,168754,11.2
23330,2342,1,74,98.0,0,35495,6.1,220667,169257,11.2
23340,2343,1,74,98.0,0,34519,6.1,221067,169785,11.2
23350,2344,1,74,98.0,0,33491,6.1,221428,170245,11.2
23360,2345,1,74,98.0,0,32407,6.1,221755,170688,11.2
23370,2346,1,74,98.0,0,31270,6.1,222125,171142,11.2
23380,2347,1,74,98.0,0,30092,6.1,222482,171580,11.2
23390,2348,1,74,98.0,0,28873,6.1,222790,172000,11.2
23400,2349,1,74,98.0,0,27618,6.1,223089,172408,11.2
23410,2350,1,74,98.0,0,26349,6.1,223381,172762,11.2
23420,2351,1,74,98.0,0,25082,6.1,223639,173109,11.2
23430,2352,1,74,98.0,0,23823,6.1,223902,173452,11.2
23440,2353,1,74,98.0,0,22587,6.1,224161,173800,11.2
23450,2354,1,74,98.0,0,21393,6.1,224420,174144,11.2
23460,2355,1,74,98.0,0,20250,6.1,224634,174414,11.2
23470,2356,1,74,98.0,0,19159,6.1,224885,174715,11.2
23480,2357,1,74,98.0,0,18126,6.1,225123,175014,11.2
23490,2358,1,74,98.0,0,17174,6.1,225336,175282,11.2
23500,2359,1,74,98.0,0,16285,6.1,225545,175583,11.2
23510,2360,1,74,98.0,0,15471,6.1,225755,175855,11.2
23520,2361,1,74,98.0,0,14722,6.1,225990,176130,11.2
23530,2362,1,74,98.0,0,14038,6.1,226158,176378,11.2
23540,2363,1,74,98.0,0,13413,6.1,226317,176657,11.2
23550,2364,1,74,98.0,0,12842,6.1,226553,176892,11.2
23560,2365,1,74,98.0,0,12320,6.1,226771,177152,11.2
23570,2366,1,74,98.0,0,11841,6.1,226910,177399,11.2
23580,2367,1,74,98.0,0,11401,6.1,227103,177624,11.2
23590,2368,1,74,98.0,0,10987,6.1,227328,177899,11.2
23600,2369,1,74,98.0,0,10607,6.1,227500,178136,11.2
23610,2370,1,74,98.0,0,10243,6.1,227675,178378,11.2
23620,2371,1,74,98.0,0,9895,6.1,227783,178588,11.2
23630,2372,1,74,98.0,0,9564,6.1,227951,178679,11.2
23640,2373,1,74,98.0,0,9239,6.1,227959,178708,11.2
23650,2374,1,74,98.0,0,8936,6.1,227754,178450,11.2
23660,2375,1,74,98.0,0,8644,6.1,227207,177605,11.2
23670,2376,1,74,98.0,0,8390,6.1,225795,175687,11.2
23680,2377,1,74,98.0,0,8213,6.1,223824,173068,11.2
23690,2378,1,74,98.0,0,8178,6.1,221608,170362,11.2
23700,2379,1,74,98.0,0,8360,6.1,219754,168028,11.2
23710,2380,1,74,98.0,0,8864,6.1,218353,166270,11.2
23720,2381,1,74,98.0,0,9794,6.1,217326,164912,11.2
23730,2382,1,74,98.0,0,11219,6.1,216447,163848,11.2
23740,2383,1,74,98.0,0,13195,6.1,215772,163017,11.2
23750,2384,1,74,98.0,0,15729,6.1,215244,162288,11.2
23760,2385,1,74,98.0,0,18790,6.1,214779,161680,11.2
23770,2386,1,74,98.0,0,22316,6.1,214409,161239,11.2
23780,2387,1,74,98.0,0,26216,6.1,214082,160807,11.2
23790,2388,1,74,98.0,0,30358,6.1,213815,160474,11.2
23800,2389,1,74,98.0,0,34619,6.1,213606,160179,11.2
23810,2390,1,74,98.0,0,38867,6.1,213379,159951,11.2
23820,2391,1,74,98.0,0,42967,6.1,213253,159734,11.2
23830,2392,1,74,98.0,0,46802,6.1,213072,159577,11.2
23840,2393,1,74,98.0,0,50282,6.1,213022,159512,11.2
23850,2394,1,74,98.0,0,53331,6.1,213062,159515,11.2
23860,2395,1,74,98.0,0,55897,6.1,213167,159638,11.2
23870,2396,1,74,98.0,0,57962,6.1,213313,159884,11.2
23880,2397,1,74,98.0,0,59515,6.1,213630,160266,11.2
23890,2398,1,74,98.0,0,60579,6.1,213943,160681,11.2
23900,2399,1,74,98.0,0,61169,6.1,214357,161219,11.2
23910,2400,1,74,98.0,0,61332,6.1,214733,161720,11.2
23920,2401,1,74,98.0,8,61095,6.1,215119,162157,11.2
23930,2402,1,74,98.0,0,60516,6.1,215462,162601,11.2
23940,2403,1,74,98.0,0,59632,6.1,215786,162982,11.2
23950,2404,1,74,98.0,0,58494,6.1,216027,163317,11.2
23960,2405,1,74,98.0,0,57153,6.1,216255,163583,11.2
23970,2406,1,74,98.0,0,55662,6.1,216475,163881,11.2
23980,2407,1,74,98.0,0,54068,6.1,216713,164129,11.2
23990,2408,1,74,98.0,0,52423,6.1,216915,164418,11.2
24000,2409,1,74,98.0,0,50762,6.1,217100,164629,11.2
24010,2410,1,74,98.0,0,49128,6.1,217313,164882,11.2
24020,2411,1,74,98.0,0,47548,6.1,217484,165114,11.2
24030,2412,1,74,98.0,0,46045,6.1,217687,165387,11.2
24040,2413,1,74,98.0,0,44646,6.1,217946,165718,11.2
24050,2414,1,74,98.0,0,43340,6.1,218203,166062,11.2
24060,2415,1,74,98.0,0,42144,6.1,218422,166382,11.2
24070,2416,1,74,98.0,0,41051,6.1,218763,166798,11.2
24080,2417,1,74,98.0,0,40046,6.1,219088,167225,11.2
24090,2418,1,74,98.0,0,39112,6.1,219441,167704,11.2
24100,2419,1,74,98.0,0,38236,6.1,219854,168179,11.2
24110,2420,1,74,98.0,0,37398,6.1,220196,168648,11.2
24120,2421,1,74,98.0,0,36569,6.1,220585,169125,11.2
24130,2422,1,74,98.0,0,35731,6.1,220912,169577,11.2
24140,2423,1,74,98.0,0,34874,6.1,221312,170072,11.2
24150,2424,1,74,98.0,0,33973,6.1,221635,170532,11.2
24160,2425,1,74,98.0,0,33018,6.1,222035,171006,11.2
24170,2426,1,74,98.0,0,32002,6.1,222404,171478,11.2
24180,2427,1,74,98.0,0,30925,6.1,222766,171978,11.2
24190,2428,1,74,98.0,0,29792,6.1,223104,172349,11.2
24200,2429,1,74,98.0,0,28604,6.1,223378,172799,11.2
24210,2430,1,74,98.0,0,27366,6.1,223669,173181,11.2
24220,2431,1,74,98.0,0,26091,6.1,223950,173582,11.2
24230,2432,1,74,98.0,0,24794,6.1,224238,173906,11.2
24240,2433,1,74,98.0,0,23495,6.1,224477,174254,11.2
24250,2434,1,74,98.0,0,22205,6.1,224737,174571,11.2
24260,2435,1,74,98.0,0,20941,6.1,224940,174843,11.2
24270,2436,1,74,98.0,0,19710,6.1,225151,175171,11.2
24280,2437,1,74,98.0,0,18530,6.1,225409,175447,11.2
24290,2438,1,74,98.0,0,17418,6.1,225570,175752,11.2
24300,2439,1,74,98.0,0,16375,6.1,225782,176004,11.2
24310,2440,1,74,98.0,0,15407,6.1,225981,176267,11.2
24320,2441,1,74,98.0,0,14520,6.1,226175,176520,11.2
24330,2442,1,74,98.0,0,13715,6.1,226420,176792,11.2
24340,2443,1,74,98.0,0,12979,6.1,226582,177081,11.2
24350,2444,1,74,98.0,0,12319,6.1,226818,177315,11.2
24360,2445,1,74,98.0,0,11723,6.1,226998,177593,11.2
24370,2446,1,74,98.0,0,11186,6.1,227207,177860,11.2
24380,2447,1,74,98.0,0,10696,6.1,227359,178085,11.2
24390,2448,1,74,98.0,0,10247,6.1,227549,178346,11.2
24400,2449,1,74,98.0,0,9827,6.1,227736,178536,11.2
24410,2450,1,74,98.0,0,9437,6.1,227860,178743,11.2
24420,2451,1,74,98.0,0,9071,6.1,227970,178873,11.2
24430,2452,1,74,98.0,0,8723,6.1,227939,178849,11.2
24440,2453,1,74,98.0,0,8392,6.1,227749,178626,11.2
24450,2454,1,74,98.0,0,8085,6.1,227209,177744,11.2
24460,2455,1,74,98.0,0,7819,6.1,225760,175793,11.2
24470,2456,1,74,98.0,0,7636,6.1,223768,173150,11.2
24480,2457,1,74,98.0,0,7600,6.1,221467,170306,11.2
24490,2458,1,74,98.0,0,7803,6.1,219567,167963,11.2
24500,2459,1,74,98.0,0,8359,6.1,218104,166120,11.2
24510,2460,1,74,98.0,0,9371,6.1,217060,164737,11.2
24520,2461,1,74,98.0,0,10929,6.1,216197,163689,11.2
24530,2462,1,74,98.0,0,13084,6.1,215570,162859,11.2
24540,2463,1,74,98.0,0,15858,6.1,215016,162176,11.2
24550,2464,1,74,98.0,0,19203,6.1,214597,161607,11.2
24560,2465,1,74,98.0,0,23049,6.1,214223,161126,11.2
24570,2466,1,74,98.0,0,27298,6.1,213896,160726,11.2
24580,2467,1,74,98.0,0,31814,6.1,213624,160351,11.2
24590,2468,1,74,98.0,0,36460,6.3,213342,160010,11.2
24600,2469,1,74,98.0,0,41078,6.3,213117,159738,11.2
24610,2470,1,74,98.0,0,45528,6.3,212912,159531,11.2
24620,2471,1,74,98.0,0,49681,6.3,212775,159384,11.2
24630,2472,1,74,98.0,0,53442,6.3,212742,159264,11.2
24640,2473,1,74,98.0,0,56733,6.3,212694,159258,11.2
24650,2474,1,74,98.0,0,59502,6.3,212695,159348,11.2
24660,2475,1,74,98.0,0,61720,6.3,212928,159507,11.2
24670,2476,1,74,98.0,0,62258,6.3,213174,159864,11.2
24680,2477,1,74,98.0,0,62258,6.3,213500,160255,11.2
24690,2478,1,74,98.0,0,62258,6.3,213877,160666,11.2
24700,2479,1,74,98.0,0,62258,6.3,214169,161174,11.2
24710,2480,1,74,98.0,8,62048,6.3,214583,161636,11.2
24720,2481,1,74,98.0,0,61510,6.3,214884,162055,11.2
24730,2482,1,74,98.0,0,60688,6.3,215225,162429,11.2
24740,2483,1,74,98.0,0,59631,6.3,215427,162697,11.2
24750,2484,1,74,98.0,0,58386,6.3,215634,162931,11.2
24760,2485,1,74,98.0,0,57003,6.3,215800,163227,11.2
24770,2486,1,74,98.0,0,55519,6.3,216014,163467,11.2
24780,2487,1,74,98.0,0,53986,6.3,216172,163693,11.2
24790,2488,1,74,98.0,0,52439,6.3,216314,163900,11.2
24800,2489,1,74,98.0,0,50912,6.3,216505,164141,11.2
24810,2490,1,74,98.0,0,49439,6.3,216687,164378,11.2
24820,2491,1,74,98.0,0,48036,6.3,216842,164606,11.2
24830,2492,1,74,98.0,0,46718,6.3,217068,164866,11.2
24840,2493,1,74,98.0,0,45501,6.3,217264,165179,11.2
24850,2494,1,74,98.0,0,44380,6.3,217537,165494,11.2
24860,2495,1,74,98.0,0,43350,6.3,217807,165879,11.2
24870,2496,1,74,98.0,0,42405,6.3,218084,166235,11.2
24880,2497,1,74,98.0,0,41535,6.3,218406,166653,11.2
24890,2498,1,74,98.0,0,40717,6.3,218733,167070,11.2
24900,2499,1,74,98.0,0,39941,6.3,219055,167482,11.2
24910,2500,1,74,98.0,0,39179,6.3,219415,167957,11.2
24920,2501,1,74,98.0,0,38410,6.3,219782,168445,11.2
24930,2502,1,74,98.0,0,37627,6.3,220157,168904,11.3
24940,2503,1,74,98.0,0,36804,6.3,220511,169374,11.3
24950,2504,1,74,98.0,0,35939,6.3,220905,169862,11.3
24960,2505,1,74,98.0,0,35011,6.3,221273,170338,11.3
24970,2506,1,74,98.0,0,34019,6.3,221636,170807,11.3
24980,2507,1,74,98.0,0,32967,6.3,221998,171277,11.3
24990,2508,1,74,98.0,0,31850,6.3,222367,171729,11.3
25000,2509,1,74,98.0,0,30673,6.3,222656,172131,11.3
25010,2510,1,74,98.0,0,29453,6.3,222963,172542,11.3
25020,2511,1,74,98.0,0,28195,6.3,223280,172928,11.3
25030,2512,1,74,98.0,0,26923,6.3,223541,173308,11.3
25040,2513,1,74,98.0,0,25641,6.3,223857,173649,11.3
25050,2514,1,74,98.0,0,24367,6.3,224061,173989,11.3
25060,2515,1,74,98.0,0,23102,6.3,224346,174307,11.3
25070,2516,1,74,98.0,0,21874,6.3,224514,174618,11.3
25080,2517,1,74,98.0,0,20683,6.3,224751,174870,11.3
25090,2518,1,74,98.0,0,19558,6.3,224976,175188,11.3
25100,2519,1,74,98.0,0,18494,6.3,225182,175437,11.3
25110,2520,1,74,98.0,0,17507,6.3,225345,175713,11.3
25120,2521,1,74,98.0,0,16588,6.3,225599,175990,11.3
25130,2522,1,74,98.0,0,15742,6.3,225758,176290,11.3
25140,2523,1,74,98.0,0,14963,6.3,226008,176546,11.3
25150,2524,1,74,98.0,0,14258,6.3,226170,176818,11.3
25160,2525,1,74,98.0,0,13615,6.3,226411,177027,11.3
25170,2526,1,74,98.0,0,13023,6.3,226626,177328,11.3
25180,2527,1,74,98.0,0,12487,6.3,226780,177532,11.3
