TIMESTAMP_MS,COUNTER,DEVICE_ID,PULSE_BPM,SPO2_PCT,SPO2_STATUS,PLETH,BATTERY_PCT,RED_ADC,IR_ADC,PERFUSION_INDEX
0,9,1,255,12.7,1,0,6.4,37,1,0.0
10,10,1,255,12.7,1,0,6.4,8,-8,0.0
20,11,1,255,12.7,1,0,6.4,20,15,0.0
30,12,1,255,12.7,1,0,6.4,-49,-18,0.0
40,13,1,255,12.7,1,0,6.4,-51,-19,0.0
50,14,1,255,12.7,1,0,6.4,-45,80,0.0
60,15,1,255,12.7,1,0,6.4,-48,44,0.0
70,16,1,255,12.7,1,0,6.4,-2,73,0.0
80,17,1,255,12.7,1,0,6.4,5,40,0.0
90,18,1,255,12.7,1,0,6.4,35,36,0.0
100,19,1,255,12.7,1,0,6.4,53,-25,0.0
110,20,1,255,12.7,1,0,6.4,36,-29,0.0
120,21,1,255,12.7,1,0,6.4,56,10,0.0
130,22,1,255,12.7,1,0,6.4,20,3,0.0
140,23,1,255,12.7,1,0,6.4,41,6,0.0
150,24,1,255,12.7,1,0,6.4,10,-4,0.0
160,25,1,255,12.7,1,0,6.4,10,5,0.0
170,26,1,255,12.7,1,0,6.4,-1,2,0.0
180,27,1,255,12.7,1,0,6.4,-13,27,0.0
190,28,1,255,12.7,1,0,6.4,82,29,0.0
200,29,1,255,12.7,1,0,6.4,47,57,0.0
210,30,1,255,12.7,1,0,6.4,19,51,0.0
220,31,1,255,12.7,1,0,6.4,8,43,0.0
230,32,1,255,12.7,1,0,6.4,-25,28,0.0
240,33,1,255,12.7,1,0,6.4,-35,15,0.0
250,34,1,255,12.7,1,0,6.4,-70,52,0.0
260,35,1,255,12.7,1,0,6.4,-40,4,0.0
270,36,1,255,12.7,1,0,6.4,-87,-2,0.0
280,37,1,255,12.7,1,0,6.4,-1,-3,0.0
290,38,1,255,12.7,1,0,6.4,-63,-4,0.0
300,39,1,255,12.7,1,0,6.4,-54,0,0.0
310,40,1,255,12.7,1,0,6.4,-51,8,0.0
320,41,1,255,12.7,1,0,6.4,46,-50,0.0
330,42,1,255,12.7,1,0,6.4,-29,-31,0.0
340,43,1,255,12.7,1,0,6.4,-1,-60,0.0
350,44,1,255,12.7,1,0,6.4,11,-49,0.0
360,45,1,255,12.7,1,0,6.4,10,-59,0.0
370,46,1,255,12.7,1,0,6.4,11,-80,0.0
380,47,1,255,12.7,1,0,6.4,-11,-63,0.0
390,48,1,255,12.7,1,0,6.4,-9,-61,0.0
400,49,1,255,12.7,1,0,6.4,-11,-82,0.0
410,50,1,255,12.7,1,0,6.4,-38,12,0.0
420,51,1,255,12.7,1,0,6.4,-7,-34,0.0
430,52,1,255,12.7,1,0,6.4,67,-27,0.0
440,53,1,255,12.7,1,0,6.4,60,-17,0.0
450,54,1,255,12.7,1,0,6.4,39,-19,0.0
460,55,1,255,12.7,1,0,6.4,33,-8,0.0
470,56,1,255,12.7,1,0,6.4,-51,55,0.0
480,57,1,255,12.7,1,0,6.4,-24,-2,0.0
490,58,1,255,12.7,1,0,6.4,-19,-5,0.0
500,59,1,255,12.7,1,0,6.4,-12,22,0.0
510,60,1,255,12.7,1,0,6.4,-16,15,0.0
520,61,1,255,12.7,1,0,6.4,7,29,0.0
530,62,1,255,12.7,1,0,6.4,9,26,0.0
540,63,1,255,12.7,1,0,6.4,34,7,0.0
550,64,1,255,12.7,1,0,6.4,37,-14,0.0
560,65,1,255,12.7,1,0,6.4,51,45,0.0
570,66,1,255,12.7,1,0,6.4,57,23,0.0
580,67,1,255,12.7,1,0,6.4,39,22,0.0
590,68,1,255,12.7,1,0,6.4,50,1,0.0
600,69,1,255,12.7,1,0,6.4,50,-10,0.0
610,70,1,255,12.7,1,0,6.4,2,-65,0.0
620,71,1,255,12.7,1,0,6.4,77,-37,0.0
630,72,1,255,12.7,1,0,6.4,52,5,0.0
640,73,1,255,12.7,1,0,6.4,-5,50,0.0
650,74,1,255,12.7,1,0,6.4,-10,25,0.0
660,75,1,255,12.7,1,0,6.4,7,45,0.0
670,76,1,255,12.7,1,0,6.4,-15,61,0.0
680,77,1,255,12.7,1,0,6.4,3,119,0.0
690,78,1,255,12.7,1,0,6.4,-27,121,0.0
700,79,1,255,12.7,1,0,6.4,-36,46,0.0
710,80,1,255,12.7,1,0,6.4,-57,10,0.0
720,81,1,255,12.7,1,0,6.4,-58,11,0.0
730,82,1,255,12.7,1,0,6.4,-60,-6,0.0
740,83,1,255,12.7,1,0,6.4,-76,-5,0.0
750,84,1,255,12.7,1,0,6.4,-73,1,0.0
760,85,1,255,12.7,1,0,6.4,-45,49,0.0
770,86,1,255,12.7,1,0,6.4,-33,65,0.0
780,87,1,255,12.7,1,0,6.4,43,-45,0.0
790,88,1,255,12.7,1,0,6.4,-12,-8,0.0
800,89,1,255,12.7,1,0,6.4,-17,-40,0.0
810,90,1,255,12.7,1,0,6.4,4,-55,0.0
820,91,1,255,12.7,1,0,6.4,-14,-48,0.0
830,92,1,255,12.7,1,0,6.4,15,-62,0.0
840,93,1,255,12.7,1,0,6.4,30,-93,0.0
850,94,1,255,12.7,1,0,6.4,-8,-73,0.0
860,95,1,255,12.7,1,0,6.4,0,-59,0.0
870,96,1,255,12.7,1,0,6.4,54,-43,0.0
880,97,1,255,12.7,1,0,6.4,59,-28,0.0
890,98,1,255,12.7,1,0,6.4,60,-43,0.0
900,99,1,255,12.7,1,0,6.4,45,-23,0.0
910,100,1,255,12.7,1,0,6.4,50,-15,0.0
920,101,1,255,12.7,1,0,6.4,27,-7,0.0
930,102,1,255,12.7,1,0,6.4,15,13,0.0
940,103,1,255,12.7,1,0,6.4,11,-19,0.0
950,104,1,255,12.7,1,0,6.4,6,5,0.0
960,105,1,255,12.7,1,0,6.4,-3,2,0.0
970,106,1,255,12.7,1,0,6.4,-3,2,0.0
980,107,1,255,12.7,1,0,6.4,4,54,0.0
990,108,1,255,12.7,1,0,6.4,16,28,0.0
1000,109,1,255,12.7,1,0,6.4,-9,53,0.0
1010,110,1,255,12.7,1,0,6.4,51,-19,0.0
1020,111,1,255,12.7,1,0,6.4,47,43,0.0
1030,112,1,255,12.7,1,0,6.4,56,24,0.0
1040,113,1,255,12.7,1,0,6.4,54,11,0.0
1050,114,1,255,12.7,1,0,6.4,26,-47,0.0
1060,115,1,255,12.7,1,0,6.4,32,-94,0.0
1070,116,1,255,12.7,1,0,6.4,7,5,0.0
1080,117,1,255,12.7,1,0,6.4,13,-58,0.0
1090,118,1,255,12.7,1,0,6.4,-25,4,0.0
1100,119,1,255,12.7,1,0,6.4,0,2,0.0
1110,120,1,255,12.7,1,0,6.4,-6,12,0.0
1120,121,1,255,12.7,1,0,6.4,13,46,0.0
1130,122,1,255,12.7,1,0,6.4,3,35,0.0
1140,123,1,255,12.7,1,0,6.4,15,38,0.0
1150,124,1,255,12.7,1,0,6.4,-38,34,0.0
1160,125,1,255,12.7,1,0,6.4,-57,55,0.0
1170,126,1,255,12.7,1,0,6.4,-29,40,0.0
1180,127,1,255,12.7,1,0,6.4,-45,30,0.0
1190,128,1,255,12.7,1,0,6.4,-63,10,0.0
1200,129,1,255,12.7,1,0,6.4,-105,50,0.0
1210,130,1,255,12.7,1,0,6.4,12,-19,0.0
1220,131,1,255,12.7,1,0,6.4,-39,11,0.0
1230,132,1,255,12.7,1,0,6.4,-42,1,0.0
1240,133,1,255,12.7,1,0,6.4,-21,-7,0.0
1250,134,1,255,12.7,1,0,6.4,-23,-11,0.0
1260,135,1,255,12.7,1,0,6.4,-3,-36,0.0
1270,136,1,255,12.7,1,0,6.4,9,-52,0.0
1280,137,1,255,12.7,1,0,6.4,3,-22,0.0
1290,138,1,255,12.7,1,0,6.4,2,-101,0.0
1300,139,1,255,12.7,1,0,6.4,-11,-84,0.0
1310,140,1,255,12.7,1,0,6.4,-14,-58,0.0
1320,141,1,255,12.7,1,0,6.4,16,-58,0.0
1330,142,1,255,12.7,1,0,6.4,24,-63,0.0
1340,143,1,255,12.7,1,0,6.4,-35,-34,0.0
1350,144,1,255,12.7,1,0,6.4,-20,-21,0.0
1360,145,1,255,12.7,1,0,6.4,20,-20,0.0
1370,146,1,255,12.7,1,0,6.4,43,-12,0.0
1380,147,1,255,12.7,1,0,6.4,38,1,0.0
1390,148,1,255,12.7,1,0,6.4,23,-4,0.0
1400,149,1,255,12.7,1,0,6.4,16,-12,0.0
1410,150,1,255,12.7,1,0,6.4,7,-8,0.0
1420,151,1,255,12.7,1,0,6.4,-27,22,0.0
1430,152,1,255,12.7,1,0,6.4,-67,29,0.0
1440,153,1,255,12.7,1,0,6.4,2,-5,0.0
1450,154,1,255,12.7,1,0,6.4,6,7,0.0
1460,155,1,255,12.7,1,0,6.4,7,53,0.0
1470,156,1,255,12.7,1,0,6.4,13,42,0.0
1480,157,1,255,12.7,1,0,6.1,20,42,0.0
1490,158,1,255,12.7,1,0,6.1,84,34,0.0
1500,159,1,255,12.7,1,0,6.1,56,33,0.0
1510,160,1,255,12.7,1,0,6.1,35,-77,0.0
1520,161,1,255,12.7,1,0,6.1,103,-6,0.0
1530,162,1,255,12.7,1,0,6.1,10,-9,0.0
1540,163,1,255,12.7,1,0,6.1,5,-3,0.0
1550,164,1,255,12.7,1,0,6.1,6,-1,0.0
1560,165,1,255,12.7,1,0,6.1,11,30,0.0
1570,166,1,255,12.7,1,0,6.1,23,7,0.0
1580,167,1,255,12.7,1,0,6.1,-3,69,0.0
1590,168,1,255,12.7,1,0,6.1,-9,58,0.0
1600,169,1,255,12.7,1,0,6.1,6,66,0.0
1610,170,1,255,12.7,1,0,6.1,9,67,0.0
1620,171,1,255,12.7,1,0,6.1,-43,34,0.0
1630,172,1,255,12.7,1,0,6.1,-43,102,0.0
1640,173,1,255,12.7,1,0,6.1,-104,32,0.0
1650,174,1,255,12.7,1,0,6.1,-103,65,0.0
1660,175,1,255,12.7,1,0,6.1,-48,70,0.0
1670,176,1,255,12.7,1,0,6.1,-75,27,0.0
1680,177,1,255,12.7,1,0,6.1,-59,-7,0.0
1690,178,1,255,12.7,1,0,6.1,-71,-7,0.0
1700,179,1,255,12.7,1,0,6.1,36,60,0.0
1710,180,1,255,12.7,1,0,6.1,-8,-16,0.0
1720,181,1,255,12.7,1,0,6.1,-35,-61,0.0
1730,182,1,255,12.7,1,0,6.1,9,-55,0.0
1740,183,1,255,12.7,1,0,6.1,13,-54,0.0
1750,184,1,255,12.7,1,0,6.1,-5,-41,0.0
1760,185,1,255,12.7,1,0,6.1,16,-68,0.0
1770,186,1,255,12.7,1,0,6.1,1,-75,0.0
1780,187,1,255,12.7,1,0,6.1,-13,-2,0.0
1790,188,1,255,12.7,1,0,6.1,13,-47,0.0
1800,189,1,255,12.7,1,0,6.1,-7,-4,0.0
1810,190,1,255,12.7,1,0,6.1,35,-53,0.0
1820,191,1,255,12.7,1,0,6.1,54,-35,0.0
1830,192,1,255,12.7,1,0,6.1,74,-30,0.0
1840,193,1,255,12.7,1,0,6.1,54,-4,0.0
1850,194,1,255,12.7,1,0,6.1,16,60,0.0
1860,195,1,255,12.7,1,0,6.1,-29,7,0.0
1870,196,1,255,12.7,1,0,6.1,8,-1,0.0
1880,197,1,255,12.7,1,0,6.1,0,23,0.0
1890,198,1,255,12.7,1,0,6.1,1,-12,0.0
1900,199,1,255,12.7,1,0,6.1,6,-3,0.0
1910,200,1,255,12.7,1,0,6.1,-7,5,0.0
1920,201,1,255,12.7,1,0,6.1,-44,77,0.0
1930,202,1,255,12.7,1,0,6.1,-25,11,0.0
1940,203,1,255,12.7,1,0,6.1,7,67,0.0
1950,204,1,255,12.7,1,0,6.1,56,52,0.0
1960,205,1,255,12.7,1,0,6.1,45,50,0.0
1970,206,1,255,12.7,1,0,6.1,37,24,0.0
1980,207,1,255,12.7,1,0,6.1,61,16,0.0
1990,208,1,255,12.7,1,0,6.1,88,-33,0.0
2000,209,1,255,12.7,1,0,6.1,41,-134,0.0
2010,210,1,255,12.7,1,0,6.1,66,0,0.0
2020,211,1,255,12.7,1,0,6.1,36,34,0.0
2030,212,1,255,12.7,1,0,6.1,-11,1,0.0
2040,213,1,255,12.7,1,0,6.1,-11,8,0.0
2050,214,1,255,12.7,1,0,6.1,1,5,0.0
2060,215,1,255,12.7,1,0,6.1,-17,29,0.0
2070,216,1,255,12.7,1,0,6.1,69,55,0.0
2080,217,1,255,12.7,1,0,6.1,-37,31,0.0
2090,218,1,255,12.7,1,0,6.1,-15,42,0.0
2100,219,1,255,12.7,1,0,6.1,-16,41,0.0
2110,220,1,255,12.7,1,0,6.1,-33,27,0.0
2120,221,1,255,12.7,1,0,6.1,-58,18,0.0
2130,222,1,255,12.7,1,0,6.1,-73,27,0.0
2140,223,1,255,12.7,1,0,6.1,-87,59,0.0
2150,224,1,255,12.7,1,0,6.1,-70,-49,0.0
2160,225,1,255,12.7,1,0,6.1,-44,5,0.0
2170,226,1,255,12.7,1,0,6.1,-17,-22,0.0
2180,227,1,255,12.7,1,0,6.1,-32,13,0.0
2190,228,1,255,12.7,1,0,6.1,-8,-9,0.0
2200,229,1,255,12.7,1,0,6.1,-9,5,0.0
2210,230,1,255,12.7,1,0,6.1,26,-57,0.0
2220,231,1,255,12.7,1,0,6.1,74,-86,0.0
2230,232,1,255,12.7,1,0,6.1,20,-57,0.0
2240,233,1,255,12.7,1,0,6.1,-2,-68,0.0
2250,234,1,255,12.7,1,0,6.1,-4,-82,0.0
2260,235,1,255,12.7,1,0,6.1,-11,-65,0.0
2270,236,1,255,12.7,1,0,6.1,9,-58,0.0
2280,237,1,255,12.7,1,0,6.1,63,-27,0.0
2290,238,1,255,12.7,1,0,6.1,17,-52,0.0
2300,239,1,255,12.7,1,0,6.1,5,-11,0.0
2310,240,1,255,12.7,1,0,6.1,49,-23,0.0
2320,241,1,255,12.7,1,0,6.1,39,18,0.0
2330,242,1,255,12.7,1,0,6.1,42,-5,0.0
2340,243,1,255,12.7,1,0,6.1,8,13,0.0
2350,244,1,255,12.7,1,0,6.1,-35,1,0.0
2360,245,1,255,12.7,1,0,6.1,-132,10,0.0
2370,246,1,255,12.7,1,0,6.1,-42,39,0.0
2380,247,1,255,12.7,1,0,6.1,0,11,0.0
2390,248,1,255,12.7,1,0,6.1,0,6,0.0
2400,249,1,255,12.7,1,0,6.1,3,55,0.0
2410,250,1,255,12.7,1,0,6.1,6,62,0.0
2420,251,1,255,12.7,1,0,6.1,42,36,0.0
2430,252,1,255,12.7,1,0,6.1,56,-14,0.0
2440,253,1,255,12.7,1,0,6.1,104,-28,0.0
2450,254,1,255,12.7,1,0,6.1,128,32,0.0
2460,255,1,255,12.7,1,0,6.1,20,8,0.0
2470,256,1,255,12.7,1,0,6.1,30,-11,0.0
2480,257,1,255,12.7,1,0,6.1,21,-10,0.0
2490,258,1,255,12.7,1,0,6.1,9,7,0.0
2500,259,1,255,12.7,1,0,6.1,13,14,0.0
2510,260,1,255,12.7,1,0,6.1,61,26,0.0
2520,261,1,255,12.7,1,0,6.1,12,1,0.0
2530,262,1,255,12.7,1,0,6.1,36,36,0.0
2540,263,1,255,12.7,1,0,6.1,10,68,0.0
2550,264,1,255,12.7,1,0,6.1,4,66,0.0
2560,265,1,255,12.7,1,0,6.1,-3,53,0.0
2570,266,1,255,12.7,1,0,6.1,-68,18,0.0
2580,267,1,255,12.7,1,0,6.1,-95,73,0.0
2590,268,1,255,12.7,1,0,6.1,-30,35,0.0
2600,269,1,255,12.7,1,0,6.1,-68,-20,0.0
2610,270,1,255,12.7,1,0,6.1,-81,1,0.0
2620,271,1,255,12.7,1,0,6.1,-72,-10,0.0
2630,272,1,255,12.7,1,0,6.1,-57,18,0.0
2640,273,1,255,12.7,1,0,6.1,30,-20,0.0
2650,274,1,255,12.7,1,0,6.1,-43,-5,0.0
2660,275,1,255,12.7,1,0,6.1,-5,-42,0.0
2670,276,1,255,12.7,1,0,6.1,-25,-33,0.0
2680,277,1,255,12.7,1,0,6.1,11,-61,0.0
2690,278,1,255,12.7,1,0,6.1,11,-44,0.0
2700,279,1,255,12.7,1,0,6.1,-1,-56,0.0
2710,280,1,255,12.7,1,0,6.1,-6,-84,0.0
2720,281,1,255,12.7,1,0,6.1,-23,-54,0.0
2730,282,1,255,12.7,1,0,6.1,-30,-83,0.0
2740,283,1,255,12.7,1,0,6.1,29,-63,0.0
2750,284,1,255,12.7,1,0,6.1,13,17,0.0
2760,285,1,255,12.7,1,0,6.1,37,-34,0.0
2770,286,1,255,12.7,1,0,6.1,72,-12,0.0
2780,287,1,255,12.7,1,0,6.1,43,12,0.0
2790,288,1,255,12.7,1,0,6.1,25,-8,0.0
2800,289,1,255,12.7,1,0,6.1,-41,-13,0.0
2810,290,1,255,12.7,1,0,6.1,28,-1,0.0
2820,291,1,255,12.7,1,0,6.1,13,-6,0.0
2830,292,1,255,12.7,1,0,6.1,10,7,0.0
2840,293,1,255,12.7,1,0,6.1,-6,15,0.0
2850,294,1,255,12.7,1,0,6.1,-37,47,0.0
2860,295,1,255,12.7,1,0,6.1,2,41,0.0
2870,296,1,255,12.7,1,0,6.1,13,79,0.0
2880,297,1,255,12.7,1,0,6.1,18,73,0.0
2890,298,1,255,12.7,1,0,6.1,45,32,0.0
2900,299,1,255,12.7,1,0,6.1,35,30,0.0
2910,300,1,255,12.7,1,0,6.1,54,10,0.0
2920,301,1,255,12.7,1,0,6.1,54,18,0.0
2930,302,1,255,12.7,1,0,6.1,26,10,0.0
2940,303,1,255,12.7,1,0,6.1,29,8,0.0
4680,477,1,255,12.7,1,0,6.1,68,-10,0.0
4690,478,1,255,12.7,1,0,6.1,40,-50,0.0
4700,479,1,255,12.7,1,0,6.1,51,-15,0.0
4710,480,1,255,12.7,1,0,6.1,52,-13,0.0
4720,481,1,255,12.7,1,0,6.1,40,-14,0.0
4730,482,1,255,12.7,1,0,6.1,18,7,0.0
4740,483,1,255,12.7,1,0,6.1,-4,13,0.0
4750,484,1,255,12.7,1,0,6.1,17,-16,0.0
4760,485,1,255,12.7,1,0,6.1,2,-5,0.0
4770,486,1,255,12.7,1,0,6.1,-2,-13,0.0
4780,487,1,255,12.7,1,0,6.1,-8,10,0.0
4790,488,1,255,12.7,1,0,6.3,-1,37,0.0
4800,489,1,255,12.7,1,0,6.3,-10,64,0.0
4810,490,1,255,12.7,1,0,6.3,5,57,0.0
4820,491,1,255,12.7,1,0,6.3,47,47,0.0
4830,492,1,255,12.7,1,0,6.3,36,49,0.0
4840,493,1,255,12.7,1,0,6.3,42,38,0.0
4850,494,1,255,12.7,1,0,6.3,58,9,0.0
4860,495,1,255,12.7,1,0,6.3,12,14,0.0
4870,496,1,255,12.7,1,0,6.3,61,-5,0.0
4880,497,1,255,12.7,1,0,6.3,5,7,0.0
4890,498,1,255,12.7,1,0,6.3,11,7,0.0
4900,499,1,255,12.7,1,0,6.3,1,-4,0.0
4910,500,1,255,12.7,1,0,6.3,14,4,0.0
4920,501,1,255,12.7,1,0,6.3,-9,1,0.0
4930,502,1,255,12.7,1,0,6.3,18,46,0.0
4940,503,1,255,12.7,1,0,6.3,-8,46,0.0
4950,504,1,255,12.7,1,0,6.3,-4,63,0.0
4960,505,1,255,12.7,1,0,6.3,-20,58,0.0
4970,506,1,255,12.7,1,0,6.3,-46,15,0.0
4980,507,1,255,12.7,1,0,6.3,-23,45,0.0
4990,508,1,255,12.7,1,0,6.3,-70,0,0.0
5000,509,1,255,12.7,1,0,6.3,-43,8,0.0
5010,510,1,255,12.7,1,0,6.3,-100,4,0.0
5020,511,1,255,12.7,1,0,6.3,-87,3,0.0
5030,512,1,255,12.7,1,0,6.3,-21,9,0.0
5040,513,1,255,12.7,1,0,6.3,-32,23,0.0
5050,514,1,255,12.7,1,0,6.3,-41,48,0.0
5060,515,1,255,12.7,1,0,6.3,-10,-26,0.0
5070,516,1,255,12.7,1,0,6.3,-10,-21,0.0
5080,517,1,255,12.7,1,0,6.3,10,-38,0.0
5090,518,1,255,12.7,1,0,6.3,-2,-81,0.0
5100,519,1,255,12.7,1,0,6.3,19,-57,0.0
5110,520,1,255,12.7,1,0,6.3,33,-85,0.0
5120,521,1,255,12.7,1,0,6.3,-21,-34,0.0
5130,522,1,255,12.7,1,0,6.3,35,-78,0.0
5140,523,1,255,12.7,1,0,6.3,-5,-12,0.0
5150,524,1,255,12.7,1,0,6.3,47,-33,0.0
5160,525,1,255,12.7,1,0,6.3,62,0,0.0
5170,526,1,255,12.7,1,0,6.3,37,-26,0.0
5180,527,1,255,12.7,1,0,6.3,50,34,0.0
5190,528,1,255,12.7,1,0,6.3,48,37,0.0
5200,529,1,255,12.7,1,0,6.3,23,1,0.0
5210,530,1,255,12.7,1,0,6.3,-40,-2,0.0
5220,531,1,255,12.7,1,0,6.3,4,19,0.0
5230,532,1,255,12.7,1,0,6.3,7,-12,0.0
5240,533,1,255,12.7,1,0,6.3,0,16,0.0
5250,534,1,255,12.7,1,0,6.3,8,11,0.0
5260,535,1,255,12.7,1,0,6.3,27,37,0.0
5270,536,1,255,12.7,1,0,6.3,-4,39,0.0
5280,537,1,255,12.7,1,0,6.3,65,10,0.0
5290,538,1,255,12.7,1,0,6.3,53,53,0.0
5300,539,1,255,12.7,1,0,6.3,51,32,0.0
5310,540,1,255,12.7,1,0,6.3,53,17,0.0
5320,541,1,255,12.7,1,0,6.3,124,26,0.0
5330,542,1,255,12.7,1,0,6.3,55,-63,0.0
5340,543,1,255,12.7,1,0,6.3,110,20,0.0
5350,544,1,255,12.7,1,0,6.3,8,20,0.0
5360,545,1,255,12.7,1,0,6.3,20,12,0.0
5370,546,1,255,12.7,1,0,6.3,-11,-5,0.0
5380,547,1,255,12.7,1,0,6.3,12,13,0.0
5390,548,1,255,12.7,1,0,6.3,-4,19,0.0
5400,549,1,255,12.7,1,0,6.3,-6,43,0.0
5410,550,1,255,12.7,1,0,6.3,39,32,0.0
5420,551,1,255,12.7,1,0,6.3,1,69,0.0
5430,552,1,255,12.7,1,0,6.3,5,16,0.0
5440,553,1,255,12.7,1,0,6.3,-28,51,0.0
5450,554,1,255,12.7,1,0,6.3,-45,23,0.0
5460,555,1,255,12.7,1,0,6.3,-55,18,0.0
5470,556,1,255,12.7,1,0,6.3,-87,75,0.0
5480,557,1,255,12.7,1,0,6.3,-52,-68,0.0
5490,558,1,255,12.7,1,0,6.3,-43,48,0.0
5500,559,1,255,12.7,1,0,6.3,-50,-39,0.0
5510,560,1,255,12.7,1,0,6.3,-62,74,0.0
5520,561,1,255,12.7,1,0,6.3,-28,-17,0.0
5530,562,1,255,12.7,1,0,6.3,-25,-14,0.0
5540,563,1,255,12.7,1,0,6.3,0,-37,0.0
5550,564,1,255,12.7,1,0,6.3,-6,-20,0.0
5560,565,1,255,12.7,1,0,6.3,4,-100,0.0
5570,566,1,255,12.7,1,0,6.3,9,-97,0.0
5580,567,1,255,12.7,1,0,6.3,24,-86,0.0
5590,568,1,255,12.7,1,0,6.3,-14,-69,0.0
5600,569,1,255,12.7,1,0,6.3,10,-60,0.0
5610,570,1,255,12.7,1,0,6.3,9,-61,0.0
5620,571,1,255,12.7,1,0,6.3,-28,-62,0.0
5630,572,1,255,12.7,1,0,6.3,54,-25,0.0
5640,573,1,255,12.7,1,0,6.3,-24,-25,0.0
5650,574,1,255,12.7,1,0,6.3,-26,1,0.0
5660,575,1,255,12.7,1,0,6.3,-20,70,0.0
5670,576,1,255,12.7,1,0,6.3,-51,-6,0.0
5680,577,1,255,12.7,1,0,6.3,17,-12,0.0
5690,578,1,255,12.7,1,0,6.3,-98,13,0.0
5700,579,1,255,12.7,1,0,6.3,-13,-13,0.0
5710,580,1,255,12.7,1,0,6.3,-44,-18,0.0
5720,581,1,255,12.7,1,0,6.3,13,62,0.0
5730,582,1,255,12.7,1,0,6.3,3,-20,0.0
5740,583,1,255,12.7,1,0,6.3,12,38,0.0
5750,584,1,255,12.7,1,0,6.3,5,56,0.0
5760,585,1,255,12.7,1,0,6.3,23,33,0.0
5770,586,1,255,12.7,1,0,6.3,43,55,0.0
5780,587,1,255,12.7,1,0,6.3,39,-83,0.0
5790,588,1,255,12.7,1,0,6.3,34,-104,0.0
5800,589,1,255,12.7,1,0,6.3,74,-6,0.0
5810,590,1,255,12.7,1,0,6.3,119,10,0.0
5820,591,1,255,12.7,1,0,6.3,34,-30,0.0
5830,592,1,255,12.7,1,0,6.3,107,3,0.0
5840,593,1,255,12.7,1,0,6.3,11,14,0.0
5850,594,1,255,12.7,1,0,6.3,-2,-12,0.0
5860,595,1,255,12.7,1,0,6.3,-8,9,0.0
5870,596,1,255,12.7,1,0,6.3,17,28,0.0
5880,597,1,255,12.7,1,0,6.3,12,39,0.0
5890,598,1,255,12.7,1,0,6.3,12,45,0.0
5900,599,1,255,12.7,1,0,6.3,6,45,0.0
5910,600,1,255,12.7,1,0,6.3,-28,43,0.0
5920,601,1,255,12.7,1,0,6.3,-29,50,0.0
5930,602,1,255,12.7,1,0,6.3,-34,43,0.0
5940,603,1,255,12.7,1,0,6.3,-75,14,0.0
5950,604,1,255,12.7,1,0,6.3,-30,77,0.0
5960,605,1,255,12.7,1,0,6.3,-67,52,0.0
5970,606,1,255,12.7,1,0,6.3,-47,6,0.0
5980,607,1,255,12.7,1,0,6.3,-56,71,0.0
5990,608,1,255,12.7,1,0,6.3,34,8,0.0
6000,609,1,255,12.7,1,0,6.3,14,-25,0.0
6010,610,1,255,12.7,1,0,6.3,-7,-9,0.0
6020,611,1,255,12.7,1,0,6.3,-11,5,0.0
6030,612,1,255,12.7,1,0,6.3,0,-60,0.0
6040,613,1,255,12.7,1,0,6.3,-12,-32,0.0
6050,614,1,255,12.7,1,0,6.3,19,-63,0.0
6060,615,1,255,12.7,1,0,6.3,-20,-59,0.0
6070,616,1,255,12.7,1,0,6.3,9,-28,0.0
6080,617,1,255,12.7,1,0,6.3,-22,-47,0.0
6090,618,1,255,12.7,1,0,6.3,56,-36,0.0
6100,619,1,255,12.7,1,0,6.3,0,-34,0.0
6110,620,1,255,12.7,1,0,6.3,26,-53,0.0
6120,621,1,255,12.7,1,0,6.3,63,-2,0.0
6130,622,1,255,12.7,1,0,6.3,44,-26,0.0
6140,623,1,255,12.7,1,0,6.3,46,13,0.0
6150,624,1,255,12.7,1,0,6.3,29,1,0.0
6160,625,1,255,12.7,1,0,6.3,24,2,0.0
6170,626,1,255,12.7,1,0,6.3,-29,9,0.0
6180,627,1,255,12.7,1,0,6.3,-52,19,0.0
6190,628,1,255,12.7,1,0,6.3,-41,38,0.0
6200,629,1,255,12.7,1,0,6.3,-6,9,0.0
6210,630,1,255,12.7,1,0,6.3,7,49,0.0
6220,631,1,255,12.7,1,0,6.3,-3,46,0.0
6230,632,1,255,12.7,1,0,6.3,35,-75,0.0
6240,633,1,255,12.7,1,0,6.3,30,38,0.0
6250,634,1,255,12.7,1,0,6.3,34,65,0.0
6260,635,1,255,12.7,1,0,6.3,42,34,0.0
6270,636,1,255,12.7,1,0,6.3,44,23,0.0
6280,637,1,255,12.7,1,0,6.3,35,16,0.0
6290,638,1,255,12.7,1,0,6.3,30,2,0.0
6300,639,1,255,12.7,1,0,6.3,22,-3,0.0
6310,640,1,255,12.7,1,0,6.3,70,33,0.0
6320,641,1,255,12.7,1,0,6.3,73,3,0.0
6330,642,1,255,12.7,1,0,6.3,11,-7,0.0
6340,643,1,255,12.7,1,0,6.3,6,16,0.0
6350,644,1,255,12.7,1,0,6.3,8,22,0.0
6360,645,1,255,12.7,1,0,6.3,-17,35,0.0
6370,646,1,255,12.7,1,0,6.3,37,42,0.0
6380,647,1,255,12.7,1,0,6.3,-32,75,0.0
6390,648,1,255,12.7,1,0,6.3,-64,96,0.0
6400,649,1,255,12.7,1,0,6.3,-75,93,0.0
6410,650,1,255,12.7,1,0,6.3,-7,29,0.0
6420,651,1,255,12.7,1,0,6.3,-52,39,0.0
6430,652,1,255,12.7,1,0,6.3,-51,4,0.0
6440,653,1,255,12.7,1,0,6.3,-90,-8,0.0
6450,654,1,255,12.7,1,0,6.3,-74,2,0.0
6460,655,1,255,12.7,1,0,6.3,-56,12,0.0
6470,656,1,255,12.7,1,0,6.3,-61,-10,0.0
6480,657,1,255,12.7,1,0,6.3,-59,-17,0.0
6490,658,1,255,12.7,1,0,6.3,35,-33,0.0
6500,659,1,255,12.7,1,0,6.3,-24,1,0.0
6510,660,1,255,12.7,1,0,6.3,-9,-13,0.0
6520,661,1,255,12.7,1,0,6.3,19,-67,0.0
6530,662,1,255,12.7,1,0,6.3,35,-75,0.0
6540,663,1,255,12.7,1,0,6.3,15,-100,0.0
6550,664,1,255,12.7,1,0,6.3,20,-92,0.0
6560,665,1,255,12.7,1,0,6.3,-1,-60,0.0
6570,666,1,255,12.7,1,0,6.3,4,-56,0.0
6580,667,1,255,12.7,1,0,6.3,28,-39,0.0
6590,668,1,255,12.7,1,0,6.3,68,-42,0.0
6600,669,1,255,12.7,1,0,6.3,42,-12,0.0
6610,670,1,255,12.7,1,0,6.3,56,-23,0.0
6620,671,1,255,12.7,1,0,6.3,42,34,0.0
6630,672,1,255,12.7,1,0,6.3,27,3,0.0
6640,673,1,255,12.7,1,0,6.3,-43,40,0.0
6650,674,1,255,12.7,1,0,6.3,26,6,0.0
6660,675,1,255,12.7,1,0,6.3,4,-20,0.0
6670,676,1,255,12.7,1,0,6.3,0,-5,0.0
6680,677,1,255,12.7,1,0,6.3,-8,-25,0.0
6690,678,1,255,12.7,1,0,6.3,-54,66,0.0
6700,679,1,255,12.7,1,0,6.3,-58,39,0.0
6710,680,1,255,12.7,1,0,6.3,7,72,0.0
6720,681,1,255,12.7,1,0,6.3,1,53,0.0
6730,682,1,255,12.7,1,0,6.3,50,39,0.0
6740,683,1,255,12.7,1,0,6.3,37,28,0.0
6750,684,1,255,12.7,1,0,6.3,39,28,0.0
6760,685,1,255,12.7,1,0,6.3,66,9,0.0
6770,686,1,255,12.7,1,0,6.3,13,-1,0.0
6780,687,1,255,12.7,1,0,6.3,48,15,0.0
6790,688,1,255,12.7,1,0,6.3,21,2,0.0
6800,689,1,255,12.7,1,0,6.3,23,0,0.0
6810,690,1,255,12.7,1,0,6.3,1,-9,0.0
6820,691,1,255,12.7,1,0,6.3,-13,11,0.0
6830,692,1,255,12.7,1,0,6.3,-19,19,0.0
6840,693,1,255,12.7,1,0,6.3,-1,42,0.0
6850,694,1,255,12.7,1,0,6.3,-28,45,0.0
6860,695,1,255,12.7,1,0,6.3,-2,31,0.0
6870,696,1,255,12.7,1,0,6.3,4,61,0.0
6880,697,1,255,12.7,1,0,6.3,-34,33,0.0
6890,698,1,255,12.7,1,0,6.3,-53,40,0.0
6900,699,1,255,12.7,1,0,6.3,-68,6,0.0
6910,700,1,255,12.7,1,0,6.3,-59,15,0.0
6920,701,1,255,12.7,1,0,6.3,-91,24,0.0
6930,702,1,255,12.7,1,0,6.3,-83,20,0.0
6940,703,1,255,12.7,1,0,6.3,-62,46,0.0
6950,704,1,255,12.7,1,0,6.3,-55,-15,0.0
6960,705,1,255,12.7,1,0,6.3,-14,-15,0.0
6970,706,1,255,12.7,1,0,6.3,-44,14,0.0
6980,707,1,255,12.7,1,0,6.3,-34,-2,0.0
6990,708,1,255,12.7,1,0,6.3,-28,-70,0.0
7000,709,1,255,12.7,1,0,6.3,69,-32,0.0
7010,710,1,255,12.7,1,0,6.3,25,-25,0.0
7020,711,1,255,12.7,1,0,6.3,-14,-106,0.0
7030,712,1,255,12.7,1,0,6.3,28,-36,0.0
7040,713,1,255,12.7,1,0,6.3,4,-69,0.0
7050,714,1,255,12.7,1,0,6.3,-26,-81,0.0
7060,715,1,255,12.7,1,0,6.3,-32,-57,0.0
7070,716,1,255,12.7,1,0,6.3,26,0,0.0
7080,717,1,255,12.7,1,0,6.3,6,32,0.0
7090,718,1,255,12.7,1,0,6.3,-5,40,0.0
7100,719,1,255,12.7,1,0,6.3,-6,-11,0.0
7110,720,1,255,12.7,1,0,6.3,45,3,0.0
7120,721,1,255,12.7,1,0,6.3,28,-7,0.0
7130,722,1,255,12.7,1,0,6.3,12,10,0.0
7140,723,1,255,12.7,1,0,6.3,-87,-5,0.0
7150,724,1,255,12.7,1,0,6.3,-69,22,0.0
7160,725,1,255,12.7,1,0,6.3,-1,2,0.0
7170,726,1,255,12.7,1,0,6.3,-4,2,0.0
7180,727,1,255,12.7,1,0,6.3,-11,25,0.0
7190,728,1,255,12.7,1,0,6.3,16,43,0.0
7200,729,1,255,12.7,1,0,6.3,-1,9,0.0
7210,730,1,255,12.7,1,0,6.3,53,39,0.0
7220,731,1,255,12.7,1,0,6.3,51,-22,0.0
7230,732,1,255,12.7,1,0,6.3,42,17,0.0
7240,733,1,255,12.7,1,0,6.3,56,14,0.0
7250,734,1,255,12.7,1,0,6.3,26,10,0.0
7260,735,1,255,12.7,1,0,6.3,21,-17,0.0
7270,736,1,255,12.7,1,0,6.3,16,21,0.0
7280,737,1,255,12.7,1,0,6.3,19,7,0.0
7290,738,1,255,12.7,1,0,6.3,-18,-59,0.0
7300,739,1,255,12.7,1,0,6.3,60,-26,0.0
7310,740,1,255,12.7,1,0,6.3,-12,39,0.0
7320,741,1,255,12.7,1,0,6.3,-14,32,0.0
7330,742,1,255,12.7,1,0,6.3,45,36,0.0
7340,743,1,255,12.7,1,0,6.3,-44,106,0.0
7350,744,1,255,12.7,1,0,6.3,35,59,0.0
7360,745,1,255,12.7,1,0,6.3,-53,57,0.0
7370,746,1,255,12.7,1,0,6.3,-82,10,0.0
7380,747,1,255,12.7,1,0,6.3,-46,23,0.0
7390,748,1,255,12.7,1,0,6.3,-56,18,0.0
7400,749,1,255,12.7,1,0,6.3,-94,8,0.0
7410,750,1,255,12.7,1,0,6.3,-81,5,0.0
7420,751,1,255,12.7,1,0,6.3,-50,-17,0.0
7430,752,1,255,12.7,1,0,6.3,-57,-18,0.0
7440,753,1,255,12.7,1,0,6.3,-39,27,0.0
7450,754,1,255,12.7,1,0,6.3,-15,10,0.0
7460,755,1,255,12.7,1,0,6.3,-26,-43,0.0
7470,756,1,255,12.7,1,0,6.3,-14,-66,0.0
7480,757,1,255,12.7,1,0,6.3,58,-88,0.0
7490,758,1,255,12.7,1,0,6.3,5,-71,0.0
7500,759,1,255,12.7,1,0,6.3,-8,-108,0.0
7510,760,1,255,12.7,1,0,6.3,-10,-75,0.0
7520,761,1,255,12.7,1,0,6.3,-7,-77,0.0
7530,762,1,255,12.7,1,0,6.3,24,-64,0.0
7540,763,1,255,12.7,1,0,6.3,29,-19,0.0
7550,764,1,255,12.7,1,0,6.3,69,23,0.0
7560,765,1,255,12.7,1,0,6.3,-60,-28,0.0
7570,766,1,255,12.7,1,0,6.3,48,-44,0.0
7580,767,1,255,12.7,1,0,6.3,48,19,0.0
7590,768,1,255,12.7,1,0,6.3,38,-19,0.0
7600,769,1,255,12.7,1,0,6.3,19,3,0.0
7610,770,1,255,12.7,1,0,6.3,22,17,0.0
7620,771,1,255,12.7,1,0,6.3,0,-1,0.0
7630,772,1,255,12.7,1,0,6.3,8,25,0.0
7640,773,1,255,12.7,1,0,6.3,1,-4,0.0
7650,774,1,255,12.7,1,0,6.3,-2,36,0.0
7660,775,1,255,12.7,1,0,6.3,-4,46,0.0
7670,776,1,255,12.7,1,0,6.3,19,34,0.0
7680,777,1,255,12.7,1,0,6.3,63,10,0.0
7690,778,1,255,12.7,1,0,6.3,27,55,0.0
7700,779,1,255,12.7,1,0,6.3,40,-12,0.0
7710,780,1,255,12.7,1,0,6.3,96,-51,0.0
7720,781,1,255,12.7,1,0,6.3,54,16,0.0
7730,782,1,255,12.7,1,0,6.3,52,2,0.0
7740,783,1,255,12.7,1,0,6.3,20,19,0.0
7750,784,1,255,12.7,1,0,6.3,75,-49,0.0
7760,785,1,255,12.7,1,0,6.3,75,-39,0.0
7770,786,1,255,12.7,1,0,6.3,11,20,0.0
7780,787,1,255,12.7,1,0,6.3,-1,9,0.0
7790,788,1,255,12.7,1,0,6.3,-18,12,0.0
7800,789,1,255,12.7,1,0,6.3,-6,54,0.0
7810,790,1,255,12.7,1,0,6.3,19,50,0.0
7820,791,1,255,12.7,1,0,6.3,-47,104,0.0
7830,792,1,255,12.7,1,0,6.3,-77,53,0.0
7840,793,1,255,12.7,1,0,6.3,-36,59,0.0
7850,794,1,255,12.7,1,0,6.3,-36,39,0.0
7860,795,1,255,12.7,1,0,6.3,-77,3,0.0
7870,796,1,255,12.7,1,0,6.3,-49,9,0.0
7880,797,1,255,12.7,1,0,6.3,-82,-2,0.0
7890,798,1,255,12.7,1,0,6.3,-78,-1,0.0
7900,799,1,255,12.7,1,0,6.3,-59,54,0.0
7910,800,1,255,12.7,1,0,6.3,-59,-4,0.0
7920,801,1,255,12.7,1,0,6.3,24,0,0.0
7930,802,1,255,12.7,1,0,6.3,28,-22,0.0
7940,803,1,255,12.7,1,0,6.3,28,-85,0.0
7950,804,1,255,12.7,1,0,6.3,-12,-32,0.0
7960,805,1,255,12.7,1,0,6.3,1,-22,0.0
7970,806,1,255,12.7,1,0,6.3,9,-57,0.0
7980,807,1,255,12.7,1,0,6.3,-19,-57,0.0
7990,808,1,255,12.7,1,0,6.3,6,-28,0.0
8000,809,1,255,12.7,1,0,6.3,27,-72,0.0
8010,810,1,255,12.7,1,0,6.3,1,-90,0.0
8020,811,1,255,12.7,1,0,6.3,1,-35,0.0
8030,812,1,255,12.7,1,0,6.3,73,-25,0.0
8040,813,1,255,12.7,1,0,6.3,66,-14,0.0
8050,814,1,255,12.7,1,0,6.3,71,-7,0.0
8060,815,1,255,12.7,1,0,6.3,45,-2,0.0
8070,816,1,255,12.7,1,0,6.3,-10,-18,0.0
8080,817,1,255,12.7,1,0,6.3,-27,-18,0.0
8090,818,1,255,12.7,1,0,6.1,-46,24,0.0
8100,819,1,255,12.7,1,0,6.1,20,8,0.0
8110,820,1,255,12.7,1,0,6.1,-6,-11,0.0
8120,821,1,255,12.7,1,0,6.1,3,12,0.0
8130,822,1,255,12.7,1,0,6.1,-21,2,0.0
8140,823,1,255,12.7,1,0,6.1,-55,35,0.0
8150,824,1,255,12.7,1,0,6.1,5,-23,0.0
8160,825,1,255,12.7,1,0,6.1,53,2,0.0
8170,826,1,255,12.7,1,0,6.1,3,47,0.0
8180,827,1,255,12.7,1,0,6.1,45,52,0.0
8190,828,1,255,12.7,1,0,6.1,29,46,0.0
8200,829,1,255,12.7,1,0,6.1,37,14,0.0
8210,830,1,255,12.7,1,0,6.1,67,-17,0.0
8220,831,1,255,12.7,1,0,6.1,20,-63,0.0
8230,832,1,255,12.7,1,0,6.1,77,4,0.0
8240,833,1,255,12.7,1,0,6.1,14,8,0.0
8250,834,1,255,12.7,1,0,6.1,-6,8,0.0
8260,835,1,255,12.7,1,0,6.1,15,1,0.0
8270,836,1,255,12.7,1,0,6.1,-25,-6,0.0
8280,837,1,255,12.7,1,0,6.1,20,24,0.0
8290,838,1,255,12.7,1,0,6.1,-10,34,0.0
8300,839,1,255,12.7,1,0,6.1,-21,85,0.0
8310,840,1,255,12.7,1,0,6.1,-2,40,0.0
8320,841,1,255,12.7,1,0,6.1,-40,27,0.0
8330,842,1,255,12.7,1,0,6.1,-47,61,0.0
8340,843,1,255,12.7,1,0,6.1,-40,35,0.0
8350,844,1,255,12.7,1,0,6.1,-65,27,0.0
8360,845,1,255,12.7,1,0,6.1,-88,-2,0.0
8370,846,1,255,12.7,1,0,6.1,-29,64,0.0
8380,847,1,255,12.7,1,0,6.1,-29,-17,0.0
8390,848,1,255,12.7,1,0,6.1,0,5,0.0
8400,849,1,255,12.7,1,0,6.1,-5,-4,0.0
8410,850,1,255,12.7,1,0,6.1,-50,-10,0.0
8420,851,1,255,12.7,1,0,6.1,-19,17,0.0
8430,852,1,255,12.7,1,0,6.1,-29,-5,0.0
8440,853,1,255,12.7,1,0,6.1,14,-60,0.0
8450,854,1,255,12.7,1,0,6.1,-16,-42,0.0
8460,855,1,255,12.7,1,0,6.1,-13,-77,0.0
8470,856,1,255,12.7,1,0,6.1,3,-10,0.0
8480,857,1,255,12.7,1,0,6.1,14,-78,0.0
8490,858,1,255,12.7,1,0,6.1,-12,-69,0.0
8500,859,1,255,12.7,1,0,6.1,4,-73,0.0
8510,860,1,255,12.7,1,0,6.1,47,13,0.0
8520,861,1,255,12.7,1,0,6.1,50,-51,0.0
8530,862,1,255,12.7,1,0,6.1,-11,-10,0.0
8540,863,1,255,12.7,1,0,6.1,38,-20,0.0
8550,864,1,255,12.7,1,0,6.1,43,-2,0.0
8560,865,1,255,12.7,1,0,6.1,37,-6,0.0
8570,866,1,255,12.7,1,0,6.1,21,1,0.0
8580,867,1,255,12.7,1,0,6.1,21,56,0.0
8590,868,1,255,12.7,1,0,6.1,-40,37,0.0
8600,869,1,255,12.7,1,0,6.1,-44,32,0.0
8610,870,1,255,12.7,1,0,6.1,-4,0,0.0
8620,871,1,255,12.7,1,0,6.1,-15,3,0.0
8630,872,1,255,12.7,1,0,6.1,0,74,0.0
8640,873,1,255,12.7,1,0,6.1,-1,37,0.0
8650,874,1,255,12.7,1,0,6.1,-4,66,0.0
8660,875,1,255,12.7,1,0,6.1,45,30,0.0
8670,876,1,255,12.7,1,0,6.1,37,50,0.0
8680,877,1,255,12.7,1,0,6.1,49,34,0.0
8690,878,1,255,12.7,1,0,6.1,32,11,0.0
8700,879,1,255,12.7,1,0,6.1,64,18,0.0
8710,880,1,255,12.7,1,0,6.1,23,-1,0.0
8720,881,1,255,12.7,1,0,6.1,24,13,0.0
8730,882,1,255,12.7,1,0,6.1,3,-9,0.0
8740,883,1,255,12.7,1,0,6.1,21,26,0.0
8750,884,1,255,12.7,1,0,6.1,-6,-3,0.0
8760,885,1,255,12.7,1,0,6.1,0,13,0.0
8770,886,1,255,12.7,1,0,6.1,-6,19,0.0
8780,887,1,255,12.7,1,0,6.1,14,54,0.0
8790,888,1,255,12.7,1,0,6.1,6,34,0.0
8800,889,1,255,12.7,1,0,6.1,-6,56,0.0
8810,890,1,255,12.7,1,0,6.1,-4,58,0.0
8820,891,1,255,12.7,1,0,6.1,-44,49,0.0
8830,892,1,255,12.7,1,0,6.1,-24,43,0.0
8840,893,1,255,12.7,1,0,6.1,-79,73,0.0
8850,894,1,255,12.7,1,0,6.1,-100,86,0.0
8860,895,1,255,12.7,1,0,6.1,-11,65,0.0
8870,896,1,255,12.7,1,0,6.1,-62,-8,0.0
8880,897,1,255,12.7,1,0,6.1,-44,51,0.0
8890,898,1,255,12.7,1,0,6.1,-26,-14,0.0
8900,899,1,255,12.7,1,0,6.1,-10,3,0.0
8910,900,1,255,12.7,1,0,6.1,-25,-15,0.0
8920,901,1,255,12.7,1,0,6.1,-2,2,0.0
8930,902,1,255,12.7,1,0,6.1,-33,-31,0.0
8940,903,1,255,12.7,1,0,6.1,7,-84,0.0
8950,904,1,255,12.7,1,0,6.1,-18,-34,0.0
8960,905,1,255,12.7,1,0,6.1,1,-61,0.0
8970,906,1,255,12.7,1,0,6.1,-11,-39,0.0
8980,907,1,255,12.7,1,0,6.1,4,-75,0.0
8990,908,1,255,12.7,1,0,6.1,-27,-50,0.0
9000,909,1,255,12.7,1,0,6.1,1,-84,0.0
9010,910,1,255,12.7,1,0,6.1,46,-41,0.0
9020,911,1,255,12.7,1,0,6.1,13,-53,0.0
9030,912,1,255,12.7,1,0,6.1,32,-48,0.0
9040,913,1,255,12.7,1,0,6.1,45,-16,0.0
9050,914,1,255,12.7,1,0,6.1,54,30,0.0
9060,915,1,255,12.7,1,0,6.1,-22,63,0.0
9070,916,1,255,12.7,1,0,6.1,-29,-9,0.0
9080,917,1,255,12.7,1,0,6.1,13,-13,0.0
9090,918,1,255,12.7,1,0,6.1,26,24,0.0
9100,919,1,255,12.7,1,0,6.1,-6,-12,0.0
9110,920,1,255,12.7,1,0,6.1,6,18,0.0
9120,921,1,255,12.7,1,0,6.1,-16,32,0.0
9130,922,1,255,12.7,1,0,6.1,5,59,0.0
9140,923,1,255,12.7,1,0,6.1,4,49,0.0
9150,924,1,255,12.7,1,0,6.1,-6,73,0.0
9160,925,1,255,12.7,1,0,6.1,63,50,0.0
9170,926,1,255,12.7,1,0,6.1,70,-70,0.0
9180,927,1,255,12.7,1,0,6.1,36,-78,0.0
9190,928,1,255,12.7,1,0,6.1,117,21,0.0
9200,929,1,255,12.7,1,0,6.1,32,0,0.0
9210,930,1,255,12.7,1,0,6.1,57,5,0.0
9220,931,1,255,12.7,1,0,6.1,65,12,0.0
9230,932,1,255,12.7,1,0,6.1,21,10,0.0
9240,933,1,255,12.7,1,0,6.1,8,-1,0.0
9250,934,1,255,12.7,1,0,6.1,9,7,0.0
9260,935,1,255,12.7,1,0,6.1,-14,6,0.0
9270,936,1,255,12.7,1,0,6.1,14,27,0.0
9280,937,1,255,12.7,1,0,6.1,-12,30,0.0
9290,938,1,255,12.7,1,0,6.1,6,50,0.0
9300,939,1,255,12.7,1,0,6.1,-7,58,0.0
9310,940,1,255,12.7,1,0,6.1,-58,83,0.0
9320,941,1,255,12.7,1,0,6.1,-51,31,0.0
9330,942,1,255,12.7,1,0,6.1,-76,76,0.0
9340,943,1,255,12.7,1,0,6.1,-82,14,0.0
9350,944,1,255,12.7,1,0,6.1,-10,59,0.0
9360,945,1,255,12.7,1,0,6.1,-65,17,0.0
9370,946,1,255,12.7,1,0,6.1,-81,-30,0.0
9380,947,1,255,12.7,1,0,6.1,-98,8,0.0
9390,948,1,255,12.7,1,0,6.1,-40,6,0.0
9400,949,1,255,12.7,1,0,6.1,-49,-6,0.0
9410,950,1,255,12.7,1,0,6.1,-15,-7,0.0
9420,951,1,255,12.7,1,0,6.1,-34,-33,0.0
9430,952,1,255,12.7,1,0,6.1,72,-44,0.0
9440,953,1,255,12.7,1,0,6.1,-7,-55,0.0
9450,954,1,255,12.7,1,0,6.1,35,-77,0.0
9460,955,1,255,12.7,1,0,6.1,10,-117,0.0
9470,956,1,255,12.7,1,0,6.1,-7,-103,0.0
9480,957,1,255,12.7,1,0,6.1,6,-92,0.0
9490,958,1,255,12.7,1,0,6.1,4,-69,0.0
9500,959,1,255,12.7,1,0,6.1,45,21,0.0
9510,960,1,255,12.7,1,0,6.1,-23,2,0.0
9520,961,1,255,12.7,1,0,6.1,-14,-32,0.0
9530,962,1,255,12.7,1,0,6.1,-11,-27,0.0
9540,963,1,255,12.7,1,0,6.1,57,4,0.0
9550,964,1,255,12.7,1,0,6.1,35,-16,0.0
9560,965,1,255,12.7,1,0,6.1,27,23,0.0
9570,966,1,255,12.7,1,0,6.1,6,-28,0.0
9580,967,1,255,12.7,1,0,6.1,-38,31,0.0
9590,968,1,255,12.7,1,0,6.1,-76,5,0.0
9600,969,1,255,12.7,1,0,6.1,0,-10,0.0
9610,970,1,255,12.7,1,0,6.1,11,64,0.0
9620,971,1,255,12.7,1,0,6.1,-6,49,0.0
9630,972,1,255,12.7,1,0,6.1,13,57,0.0
9640,973,1,255,12.7,1,0,6.1,-4,33,0.0
9650,974,1,255,12.7,1,0,6.1,47,-28,0.0
9660,975,1,255,12.7,1,0,6.1,53,-77,0.0
9670,976,1,255,12.7,1,0,6.1,80,3,0.0
9680,977,1,255,12.7,1,0,6.1,41,22,0.0
9690,978,1,255,12.7,1,0,6.1,41,20,0.0
9700,979,1,255,12.7,1,0,6.1,55,-10,0.0
9710,980,1,255,12.7,1,0,6.1,8,13,0.0
9720,981,1,255,12.7,1,0,6.1,21,13,0.0
9730,982,1,255,12.7,1,0,6.1,-16,2,0.0
9740,983,1,255,12.7,1,0,6.1,52,5,0.0
9750,984,1,255,12.7,1,0,6.1,62,-22,0.0
9760,985,1,255,12.7,1,0,6.1,25,48,0.0
9770,986,1,255,12.7,1,0,6.1,5,75,0.0
9780,987,1,255,12.7,1,0,6.1,2,63,0.0
9790,988,1,255,12.7,1,0,6.1,7,53,0.0
9800,989,1,255,12.7,1,0,6.1,-36,38,0.0
9810,990,1,255,12.7,1,0,6.1,-26,53,0.0
9820,991,1,255,12.7,1,0,6.1,-15,13,0.0
9830,992,1,255,12.7,1,0,6.1,-72,23,0.0
9840,993,1,255,12.7,1,0,6.1,-75,14,0.0
9850,994,1,255,12.7,1,0,6.1,-82,-1,0.0
9860,995,1,255,12.7,1,0,6.1,-84,-6,0.0
9870,996,1,255,12.7,1,0,6.1,-72,1,0.0
9880,997,1,255,12.7,1,0,6.1,-68,4,0.0
9890,998,1,255,12.7,1,0,6.1,6,66,0.0
9900,999,1,255,12.7,1,0,6.1,-14,-58,0.0
9910,1000,1,255,12.7,1,0,6.1,33,-53,0.0
9920,1001,1,255,12.7,1,0,6.1,5,-40,0.0
9930,1002,1,255,12.7,1,0,6.1,-6,-89,0.0
9940,1003,1,255,12.7,1,0,6.1,-9,-59,0.0
9950,1004,1,255,12.7,1,0,6.1,11,-45,0.0
9960,1005,1,255,12.7,1,0,6.1,8,-86,0.0
9970,1006,1,255,12.7,1,0,6.1,-3,-27,0.0
9980,1007,1,255,12.7,1,0,6.1,-13,-61,0.0
9990,1008,1,255,12.7,1,0,6.1,27,-59,0.0
10000,1009,1,255,12.7,1,0,6.1,55,-37,0.0
10010,1010,1,255,12.7,1,0,6.1,30,-55,0.0
10020,1011,1,255,12.7,1,0,6.1,70,-22,0.0
10030,1012,1,255,12.7,1,0,6.1,33,-21,0.0
10040,1013,1,255,12.7,1,0,6.1,-17,-2,0.0
10050,1014,1,255,12.7,1,0,6.1,14,76,0.0
10060,1015,1,255,12.7,1,0,6.1,6,27,0.0
10070,1016,1,255,12.7,1,0,6.1,-54,-8,0.0
10080,1017,1,255,12.7,1,0,6.1,16,17,0.0
10090,1018,1,255,12.7,1,0,6.1,-3,16,0.0
10100,1019,1,255,12.7,1,0,6.1,4,10,0.0
10110,1020,1,255,12.7,1,0,6.1,-9,57,0.0
10120,1021,1,255,12.7,1,0,6.1,51,45,0.0
10130,1022,1,255,12.7,1,0,6.1,-28,66,0.0
10140,1023,1,255,12.7,1,0,6.1,6,28,0.0
10150,1024,1,255,12.7,1,0,6.1,42,50,0.0
10160,1025,1,255,12.7,1,0,6.1,29,34,0.0
10170,1026,1,255,12.7,1,0,6.1,56,23,0.0
10180,1027,1,255,12.7,1,0,6.1,53,14,0.0
10190,1028,1,255,12.7,1,0,6.1,48,-44,0.0
10200,1029,1,255,12.7,1,0,6.1,108,-40,0.0
10210,1030,1,255,12.7,1,0,6.1,68,-53,0.0
10220,1031,1,255,12.7,1,0,6.1,75,18,0.0
10230,1032,1,255,12.7,1,0,6.1,-8,5,0.0
10240,1033,1,255,12.7,1,0,6.1,1,40,0.0
10250,1034,1,255,12.7,1,0,6.1,-3,-3,0.0
10260,1035,1,255,12.7,1,0,6.1,13,20,0.0
10270,1036,1,255,12.7,1,0,6.1,-14,29,0.0
10280,1037,1,255,12.7,1,0,6.1,-28,40,0.0
10290,1038,1,255,12.7,1,0,6.1,-34,120,0.0
10300,1039,1,255,12.7,1,0,6.1,15,55,0.0
10310,1040,1,255,12.7,1,0,6.1,-44,29,0.0
10320,1041,1,255,12.7,1,0,6.1,-29,40,0.0
10330,1042,1,255,12.7,1,0,6.1,-61,9,0.0
10340,1043,1,255,12.7,1,0,6.1,-60,10,0.0
10350,1044,1,255,12.7,1,0,6.1,-72,50,0.0
10360,1045,1,255,12.7,1,0,6.1,-15,58,0.0
10370,1046,1,255,12.7,1,0,6.1,-3,17,0.0
10380,1047,1,255,12.7,1,0,6.1,-44,-16,0.0
10390,1048,1,255,12.7,1,0,6.1,-38,11,0.0
10400,1049,1,255,12.7,1,0,6.1,-18,-21,0.0
10410,1050,1,255,12.7,1,0,6.1,-34,-50,0.0
10420,1051,1,255,12.7,1,0,6.1,52,-42,0.0
10430,1052,1,255,12.7,1,0,6.1,-6,-39,0.0
10440,1053,1,255,12.7,1,0,6.1,6,-53,0.0
10450,1054,1,255,12.7,1,0,6.1,-19,-53,0.0
10460,1055,1,255,12.7,1,0,6.1,8,-6,0.0
10470,1056,1,255,12.7,1,0,6.1,-3,-77,0.0
10480,1057,1,255,12.7,1,0,6.1,24,-85,0.0
10490,1058,1,255,12.7,1,0,6.1,1,-72,0.0
10500,1059,1,255,12.7,1,0,6.1,37,-25,0.0
10510,1060,1,255,12.7,1,0,6.1,-23,-52,0.0
10520,1061,1,255,12.7,1,0,6.1,6,45,0.0
10530,1062,1,255,12.7,1,0,6.1,-9,-19,0.0
10540,1063,1,255,12.7,1,0,6.1,47,5,0.0
10550,1064,1,255,12.7,1,0,6.1,42,-11,0.0
10560,1065,1,255,12.7,1,0,6.1,16,-5,0.0
10570,1066,1,255,12.7,1,0,6.1,25,-3,0.0
10580,1067,1,255,12.7,1,0,6.1,-54,6,0.0
10590,1068,1,255,12.7,1,0,6.1,-10,13,0.0
10600,1069,1,255,12.7,1,0,6.1,-1,1,0.0
10610,1070,1,255,12.7,1,0,6.1,12,-11,0.0
10620,1071,1,255,12.7,1,0,6.1,-6,31,0.0
10630,1072,1,255,12.7,1,0,6.1,14,33,0.0
10640,1073,1,255,12.7,1,0,6.1,7,30,0.0
10650,1074,1,255,12.7,1,0,6.1,24,38,0.0
10660,1075,1,255,12.7,1,0,6.1,57,46,0.0
10670,1076,1,255,12.7,1,0,6.1,37,28,0.0
10680,1077,1,255,12.7,1,0,6.1,43,8,0.0
10690,1078,1,255,12.7,1,0,6.1,58,21,0.0
10700,1079,1,255,12.7,1,0,6.1,39,-21,0.0
10710,1080,1,255,12.7,1,0,6.1,40,3,0.0
10720,1081,1,255,12.7,1,0,6.1,-3,6,0.0
10730,1082,1,255,12.7,1,0,6.1,4,-10,0.0
10740,1083,1,255,12.7,1,0,6.1,8,50,0.0
10750,1084,1,255,12.7,1,0,6.1,24,66,0.0
10760,1085,1,255,12.7,1,0,6.1,-18,52,0.0
10770,1086,1,255,12.7,1,0,6.1,14,35,0.0
10780,1087,1,255,12.7,1,0,6.1,-17,49,0.0
10790,1088,1,255,12.7,1,0,6.1,-9,38,0.0
10800,1089,1,255,12.7,1,0,6.1,-13,29,0.0
10810,1090,1,255,12.7,1,0,6.1,-31,36,0.0
10820,1091,1,255,12.7,1,0,6.1,-17,-15,0.0
10830,1092,1,255,12.7,1,0,6.1,-62,14,0.0
10840,1093,1,255,12.7,1,0,6.1,-113,67,0.0
10850,1094,1,255,12.7,1,0,6.1,-54,-6,0.0
10860,1095,1,255,12.7,1,0,6.1,-66,-16,0.0
10870,1096,1,255,12.7,1,0,6.1,-85,6,0.0
10880,1097,1,255,12.7,1,0,6.1,-33,-15,0.0
10890,1098,1,255,12.7,1,0,6.1,-26,53,0.0
10900,1099,1,255,12.7,1,0,6.1,21,-30,0.0
10910,1100,1,255,12.7,1,0,6.1,-27,-56,0.0
10920,1101,1,255,12.7,1,0,6.1,3,-23,0.0
10930,1102,1,255,12.7,1,0,6.1,-14,-43,0.0
10940,1103,1,255,12.7,1,0,6.1,18,-57,0.0
10950,1104,1,255,12.7,1,0,6.1,-19,-59,0.0
10960,1105,1,255,12.7,1,0,6.1,14,-97,0.0
10970,1106,1,255,12.7,1,0,6.1,-15,-57,0.0
10980,1107,1,255,12.7,1,0,6.1,-25,-18,0.0
10990,1108,1,255,12.7,1,0,6.1,54,-44,0.0
11000,1109,1,255,12.7,1,0,6.1,43,-45,0.0
11010,1110,1,255,12.7,1,0,6.1,51,-22,0.0
11020,1111,1,255,12.7,1,0,6.1,1,-13,0.0
11030,1112,1,255,12.7,1,0,6.1,59,51,0.0
11040,1113,1,255,12.7,1,0,6.1,0,-1,0.0
11050,1114,1,255,12.7,1,0,6.1,8,19,0.0
11060,1115,1,255,12.7,1,0,6.1,1,-21,0.0
11070,1116,1,255,12.7,1,0,6.1,-38,11,0.0
11080,1117,1,255,12.7,1,0,6.1,-66,-10,0.0
11090,1118,1,255,12.7,1,0,6.1,-15,5,0.0
11100,1119,1,255,12.7,1,0,6.1,-5,11,0.0
11110,1120,1,255,12.7,1,0,6.1,15,65,0.0
11120,1121,1,255,12.7,1,0,6.1,20,-58,0.0
11130,1122,1,255,12.7,1,0,6.1,35,-76,0.0
11140,1123,1,255,12.7,1,0,6.1,51,44,0.0
11150,1124,1,255,12.7,1,0,6.1,33,49,0.0
11160,1125,1,255,12.7,1,0,6.1,37,31,0.0
11170,1126,1,255,12.7,1,0,6.1,111,-52,0.0
11180,1127,1,255,12.7,1,0,6.1,88,8,0.0
11190,1128,1,255,12.7,1,0,6.1,59,6,0.0
11200,1129,1,255,12.7,1,0,6.1,3,22,0.0
11210,1130,1,255,12.7,1,0,6.1,14,-3,0.0
11220,1131,1,255,12.7,1,0,6.1,-11,-48,0.0
11230,1132,1,255,12.7,1,0,6.1,16,48,0.0
11240,1133,1,255,12.7,1,0,6.1,5,17,0.0
11250,1134,1,255,12.7,1,0,6.1,9,8,0.0
11260,1135,1,255,12.7,1,0,6.1,1,39,0.0
11270,1136,1,255,12.7,1,0,6.1,-33,45,0.0
11280,1137,1,255,12.7,1,0,6.1,10,59,0.0
11290,1138,1,255,12.7,1,0,6.1,-43,34,0.0
11300,1139,1,255,12.7,1,0,6.1,-32,60,0.0
11310,1140,1,255,12.7,1,0,6.1,-49,15,0.0
11320,1141,1,255,12.7,1,0,6.1,-48,78,0.0
11330,1142,1,255,12.7,1,0,6.1,-46,-13,0.0
11340,1143,1,255,12.7,1,0,6.1,-86,21,0.0
11350,1144,1,255,12.7,1,0,6.1,-70,-6,0.0
11360,1145,1,255,12.7,1,0,6.1,-62,-7,0.0
11370,1146,1,255,12.7,1,0,6.1,-4,2,0.0
11380,1147,1,255,12.7,1,0,6.1,6,-30,0.0
11390,1148,1,255,12.7,1,0,6.1,-23,-6,0.0
11400,1149,1,255,12.7,1,0,6.1,-4,-30,0.0
11410,1150,1,255,12.7,1,0,6.1,-9,-46,0.0
11420,1151,1,255,12.7,1,0,6.1,56,-70,0.0
11430,1152,1,255,12.7,1,0,6.1,38,-74,0.0
11440,1153,1,255,12.7,1,0,6.1,-29,-104,0.0
11450,1154,1,255,12.7,1,0,6.1,1,-90,0.0
11460,1155,1,255,12.7,1,0,6.1,-14,-85,0.0
11470,1156,1,255,12.7,1,0,6.1,-23,-75,0.0
11480,1157,1,255,12.7,1,0,6.1,67,4,0.0
11490,1158,1,255,12.7,1,0,6.1,33,-55,0.0
11500,1159,1,255,12.7,1,0,6.1,-6,-11,0.0
11510,1160,1,255,12.7,1,0,6.1,46,-3,0.0
11520,1161,1,255,12.7,1,0,6.1,42,13,0.0
11530,1162,1,255,12.7,1,0,6.1,42,0,0.0
11540,1163,1,255,12.7,1,0,6.1,26,1,0.0
11550,1164,1,255,12.7,1,0,6.1,6,-16,0.0
11560,1165,1,255,12.7,1,0,6.1,12,4,0.0
11570,1166,1,255,12.7,1,0,6.1,-12,-25,0.0
11580,1167,1,255,12.7,1,0,6.1,-38,-14,0.0
11590,1168,1,255,12.7,1,0,6.1,-7,-26,0.0
11600,1169,1,255,12.7,1,0,6.1,8,19,0.0
11610,1170,1,255,12.7,1,0,6.1,-53,64,0.0
11620,1171,1,255,12.7,1,0,6.1,42,48,0.0
11630,1172,1,255,12.7,1,0,6.1,25,52,0.0
11640,1173,1,255,12.7,1,0,6.1,50,50,0.0
11650,1174,1,255,12.7,1,0,6.1,106,20,0.0
11660,1175,1,255,12.7,1,0,6.1,30,-26,0.0
11670,1176,1,255,12.7,1,0,6.1,97,5,0.0
11680,1177,1,255,12.7,1,0,6.1,16,3,0.0
11690,1178,1,255,12.7,1,0,6.1,15,-16,0.0
11700,1179,1,255,12.7,1,0,6.1,13,14,0.0
11710,1180,1,255,12.7,1,0,6.1,4,2,0.0
11720,1181,1,255,12.7,1,0,6.1,-4,-7,0.0
11730,1182,1,255,12.7,1,0,6.1,-15,38,0.0
11740,1183,1,255,12.7,1,0,6.1,12,50,0.0
11750,1184,1,255,12.7,1,0,6.1,-13,70,0.0
11760,1185,1,255,12.7,1,0,6.1,1,61,0.0
11770,1186,1,255,12.7,1,0,6.1,-17,37,0.0
11780,1187,1,255,12.7,1,0,6.1,-24,48,0.0
11790,1188,1,255,12.7,1,0,6.1,-37,35,0.0
11800,1189,1,255,12.7,1,0,6.1,-68,12,0.0
11810,1190,1,255,12.7,1,0,6.1,-19,-7,0.0
11820,1191,1,255,12.7,1,0,6.1,-87,14,0.0
11830,1192,1,255,12.7,1,0,6.1,-72,-15,0.0
11840,1193,1,255,12.7,1,0,6.1,-77,-28,0.0
11850,1194,1,255,12.7,1,0,6.1,-29,-11,0.0
11860,1195,1,255,12.7,1,0,6.1,-50,5,0.0
11870,1196,1,255,12.7,1,0,6.1,-8,-15,0.0
11880,1197,1,255,12.7,1,0,6.1,-15,-46,0.0
11890,1198,1,255,12.7,1,0,6.1,61,-23,0.0
11900,1199,1,255,12.7,1,0,6.1,112,-80,0.0
11910,1200,1,255,12.7,1,0,6.1,-6,-118,0.0
11920,1201,1,255,12.7,1,0,6.1,-9,-64,0.0
11930,1202,1,255,12.7,1,0,6.1,3,-71,0.0
11940,1203,1,255,12.7,1,0,6.1,33,-68,0.0
11950,1204,1,255,12.7,1,0,6.1,2,-59,0.0
11960,1205,1,255,12.7,1,0,6.1,56,23,0.0
11970,1206,1,255,12.7,1,0,6.1,1,-3,0.0
11980,1207,1,255,12.7,1,0,6.1,22,-24,0.0
11990,1208,1,255,12.7,1,0,6.1,52,49,0.0
12000,1209,1,255,12.7,1,0,6.1,40,-10,0.0
12010,1210,1,255,12.7,1,0,6.1,8,14,0.0
12020,1211,1,255,12.7,1,0,6.1,8,-21,0.0
12030,1212,1,255,12.7,1,0,6.1,-99,3,0.0
12040,1213,1,255,12.7,1,0,6.1,10,-14,0.0
12050,1214,1,255,12.7,1,0,6.1,-69,31,0.0
12060,1215,1,255,12.7,1,0,6.1,11,81,0.0
12070,1216,1,255,12.7,1,0,6.1,7,41,0.0
12080,1217,1,255,12.7,1,0,6.1,4,59,0.0
12090,1218,1,255,12.7,1,0,6.1,-27,-18,0.0
12100,1219,1,255,12.7,1,0,6.1,46,50,0.0
12110,1220,1,255,12.7,1,0,6.1,34,44,0.0
12120,1221,1,255,12.7,1,0,6.1,97,-20,0.0
12130,1222,1,255,12.7,1,0,6.1,114,17,0.0
12140,1223,1,255,12.7,1,0,6.1,36,0,0.0
12150,1224,1,255,12.7,1,0,6.1,34,7,0.0
12160,1225,1,255,12.7,1,0,6.1,4,-15,0.0
12170,1226,1,255,12.7,1,0,6.1,-6,5,0.0
12180,1227,1,255,12.7,1,0,6.1,10,-42,0.0
12190,1228,1,255,12.7,1,0,6.1,15,-40,0.0
12200,1229,1,255,12.7,1,0,6.1,-12,52,0.0
12210,1230,1,255,12.7,1,0,6.1,4,32,0.0
12220,1231,1,255,12.7,1,0,6.1,84,37,0.0
12230,1232,1,255,12.7,1,0,6.1,-29,44,0.0
12240,1233,1,255,12.7,1,0,6.1,-11,30,0.0
12250,1234,1,255,12.7,1,0,6.1,-49,98,0.0
12260,1235,1,255,12.7,1,0,6.1,-37,11,0.0
12270,1236,1,255,12.7,1,0,6.1,-44,22,0.0
12280,1237,1,255,12.7,1,0,6.1,-61,-5,0.0
12290,1238,1,255,12.7,1,0,6.1,-77,66,0.0
12300,1239,1,255,12.7,1,0,6.1,-17,-3,0.0
12310,1240,1,255,12.7,1,0,6.1,-67,24,0.0
12320,1241,1,255,12.7,1,0,6.1,-27,-5,0.0
12330,1242,1,255,12.7,1,0,6.1,-58,-6,0.0
12340,1243,1,255,12.7,1,0,6.1,-50,8,0.0
12350,1244,1,255,12.7,1,0,6.1,43,-69,0.0
12360,1245,1,255,12.7,1,0,6.1,-6,-52,0.0
12370,1246,1,255,12.7,1,0,6.1,9,-70,0.0
12380,1247,1,255,12.7,1,0,6.1,-2,-40,0.0
12390,1248,1,255,12.7,1,0,6.1,6,-86,0.0
12400,1249,1,255,12.7,1,0,6.1,-21,-58,0.0
12410,1250,1,255,12.7,1,0,6.1,0,-87,0.0
12420,1251,1,255,12.7,1,0,6.1,-22,-26,0.0
12430,1252,1,255,12.7,1,0,6.1,44,-54,0.0
12440,1253,1,255,12.7,1,0,6.1,81,-7,0.0
12450,1254,1,255,12.7,1,0,6.1,8,-19,0.0
12460,1255,1,255,12.7,1,0,6.1,46,7,0.0
12470,1256,1,255,12.7,1,0,6.1,30,-18,0.0
12480,1257,1,255,12.7,1,0,6.1,29,12,0.0
12490,1258,1,255,12.7,1,0,6.1,24,26,0.0
12500,1259,1,255,12.7,1,0,6.1,-117,-1,0.0
12510,1260,1,255,12.7,1,0,6.1,-53,34,0.0
12520,1261,1,255,12.7,1,0,6.1,-4,59,0.0
12530,1262,1,255,12.7,1,0,6.1,-7,36,0.0
12540,1263,1,255,12.7,1,0,6.1,-60,23,0.0
12550,1264,1,255,12.7,1,0,6.1,26,44,0.0
12560,1265,1,255,12.7,1,0,6.1,31,41,0.0
12570,1266,1,255,12.7,1,0,6.1,36,40,0.0
12580,1267,1,255,12.7,1,0,6.1,34,36,0.0
12590,1268,1,255,12.7,1,0,6.1,48,25,0.0
12600,1269,1,255,12.7,1,0,6.1,42,28,0.0
12610,1270,1,255,12.7,1,0,6.1,66,2,0.0
12620,1271,1,255,12.7,1,0,6.1,37,-1,0.0
12630,1272,1,255,12.7,1,0,6.1,7,-5,0.0
12640,1273,1,255,12.7,1,0,6.1,6,4,0.0
12650,1274,1,255,12.7,1,0,6.1,-17,-12,0.0
12660,1275,1,255,12.7,1,0,6.1,13,2,0.0
12670,1276,1,255,12.7,1,0,6.1,-10,-3,0.0
12680,1277,1,255,12.7,1,0,6.1,61,48,0.0
12690,1278,1,255,12.7,1,0,6.1,61,58,0.0
12700,1279,1,255,12.7,1,0,6.1,-23,35,0.0
12710,1280,1,255,12.7,1,0,6.1,10,102,0.0
12720,1281,1,255,12.7,1,0,6.1,-74,80,0.0
12730,1282,1,255,12.7,1,0,6.1,-60,15,0.0
12740,1283,1,255,12.7,1,0,6.1,-21,37,0.0
12750,1284,1,255,12.7,1,0,6.1,-65,-5,0.0
12760,1285,1,255,12.7,1,0,6.1,-6,11,0.0
12770,1286,1,255,12.7,1,0,6.1,-76,-7,0.0
12780,1287,1,255,12.7,1,0,6.1,-68,6,0.0
12790,1288,1,255,12.7,1,0,6.1,-48,-5,0.0
12800,1289,1,255,12.7,1,0,6.1,5,-22,0.0
12810,1290,1,255,12.7,1,0,6.1,34,30,0.0
12820,1291,1,255,12.7,1,0,6.1,19,-38,0.0
12830,1292,1,255,12.7,1,0,6.1,2,-29,0.0
12840,1293,1,255,12.7,1,0,6.1,-20,-53,0.0
12850,1294,1,255,12.7,1,0,6.1,59,-71,0.0
12860,1295,1,255,12.7,1,0,6.1,-22,-110,0.0
12870,1296,1,255,12.7,1,0,6.1,17,-93,0.0
12880,1297,1,255,12.7,1,0,6.1,-13,-79,0.0
12890,1298,1,255,12.7,1,0,6.1,20,-58,0.0
12900,1299,1,255,12.7,1,0,6.1,34,2,0.0
12910,1300,1,255,12.7,1,0,6.1,25,-20,0.0
12920,1301,1,255,12.7,1,0,6.1,64,-2,0.0
12930,1302,1,255,12.7,1,0,6.1,50,-54,0.0
12940,1303,1,255,12.7,1,0,6.1,48,3,0.0
12950,1304,1,255,12.7,1,0,6.1,27,60,0.0
12960,1305,1,255,12.7,1,0,6.1,-105,-7,0.0
12970,1306,1,255,12.7,1,0,6.1,2,20,0.0
12980,1307,1,255,12.7,1,0,6.1,12,5,0.0
12990,1308,1,255,12.7,1,0,6.1,-53,37,0.0
13000,1309,1,255,12.7,1,0,6.1,-51,30,0.0
13010,1310,1,255,12.7,1,0,6.1,3,50,0.0
13020,1311,1,255,12.7,1,0,6.1,-69,28,0.0
13030,1312,1,255,12.7,1,0,6.1,43,27,0.0
13040,1313,1,255,12.7,1,0,6.1,8,29,0.0
13050,1314,1,255,12.7,1,0,6.1,41,54,0.0
13060,1315,1,255,12.7,1,0,6.1,50,19,0.0
13070,1316,1,255,12.7,1,0,6.1,112,18,0.0
13080,1317,1,255,12.7,1,0,6.1,43,-4,0.0
13090,1318,1,255,12.7,1,0,6.1,50,19,0.0
13100,1319,1,255,12.7,1,0,6.1,20,-14,0.0
13110,1320,1,255,12.7,1,0,6.1,12,-1,0.0
13120,1321,1,255,12.7,1,0,6.1,65,16,0.0
13130,1322,1,255,12.7,1,0,6.1,-15,38,0.0
13140,1323,1,255,12.7,1,0,6.1,9,-8,0.0
13150,1324,1,255,12.7,1,0,6.1,-17,50,0.0
13160,1325,1,255,12.7,1,0,6.1,75,53,0.0
13170,1326,1,255,12.7,1,0,6.1,26,57,0.0
13180,1327,1,255,12.7,1,0,6.1,-67,37,0.0
13190,1328,1,255,12.7,1,0,6.1,-34,58,0.0
13200,1329,1,255,12.7,1,0,6.1,-7,13,0.0
13210,1330,1,255,12.7,1,0,6.1,-81,12,0.0
13220,1331,1,255,12.7,1,0,6.1,-20,-8,0.0
13230,1332,1,255,12.7,1,0,6.1,-99,-2,0.0
13240,1333,1,255,12.7,1,0,6.1,-79,-4,0.0
13250,1334,1,255,12.7,1,0,6.1,-67,1,0.0
13260,1335,1,255,12.7,1,0,6.1,-38,-5,0.0
13270,1336,1,255,12.7,1,0,6.1,35,-39,0.0
13280,1337,1,255,12.7,1,0,6.1,-4,-58,0.0
13290,1338,1,255,12.7,1,0,6.1,-14,-16,0.0
13300,1339,1,255,12.7,1,0,6.1,57,-38,0.0
13310,1340,1,255,12.7,1,0,6.1,-6,-8,0.0
13320,1341,1,255,12.7,1,0,6.1,36,-80,0.0
13330,1342,1,255,12.7,1,0,6.1,-6,-6,0.0
13340,1343,1,255,12.7,1,0,6.1,-11,-66,0.0
13350,1344,1,255,12.7,1,0,6.1,4,-14,0.0
13360,1345,1,255,12.7,1,0,6.1,4,-42,0.0
13370,1346,1,255,12.7,1,0,6.1,62,-41,0.0
13380,1347,1,255,12.7,1,0,6.1,72,-8,0.0
13390,1348,1,255,12.7,1,0,6.1,51,-25,0.0
13400,1349,1,255,12.7,1,0,6.1,25,-1,0.0
13410,1350,1,255,12.7,1,0,6.1,-66,4,0.0
13420,1351,1,255,12.7,1,0,6.1,6,50,0.0
13430,1352,1,255,12.7,1,0,6.1,-40,5,0.0
13440,1353,1,255,12.7,1,0,6.1,-11,2,0.0
13450,1354,1,255,12.7,1,0,6.1,-75,-3,0.0
13460,1355,1,255,12.7,1,0,6.1,-55,69,0.0
13470,1356,1,255,12.7,1,0,6.1,-1,38,0.0
13480,1357,1,255,12.7,1,0,6.1,-59,31,0.0
13490,1358,1,255,12.7,1,0,6.1,33,14,0.0
13500,1359,1,255,12.7,1,0,6.1,50,46,0.0
13510,1360,1,255,12.7,1,0,6.1,40,52,0.0
13520,1361,1,255,12.7,1,0,6.1,56,-29,0.0
13530,1362,1,255,12.7,1,0,6.1,37,4,0.0
13540,1363,1,255,12.7,1,0,6.1,29,9,0.0
13550,1364,1,255,12.7,1,0,6.1,57,1,0.0
13560,1365,1,255,12.7,1,0,6.1,-3,-110,0.0
13570,1366,1,255,12.7,1,0,6.1,9,-45,0.0
13580,1367,1,255,12.7,1,0,6.1,15,3,0.0
13590,1368,1,255,12.7,1,0,6.1,76,47,0.0
13600,1369,1,255,12.7,1,0,6.1,10,62,0.0
13610,1370,1,255,12.7,1,0,6.1,54,52,0.0
13620,1371,1,255,12.7,1,0,6.1,-12,58,0.0
13630,1372,1,255,12.7,1,0,6.1,47,43,0.0
13640,1373,1,255,12.7,1,0,6.1,-53,38,0.0
13650,1374,1,255,12.7,1,0,6.1,-35,47,0.0
13660,1375,1,255,12.7,1,0,6.1,-62,16,0.0
13670,1376,1,255,12.7,1,0,6.1,-48,21,0.0
13680,1377,1,255,12.7,1,0,6.1,-97,-1,0.0
13690,1378,1,255,12.7,1,0,6.1,-88,-7,0.0
13700,1379,1,255,12.7,1,0,6.1,-74,-1,0.0
13710,1380,1,255,12.7,1,0,6.1,-67,-2,0.0
13720,1381,1,255,12.7,1,0,6.1,-51,51,0.0
13730,1382,1,255,12.7,1,0,6.1,25,-22,0.0
13740,1383,1,255,12.7,1,0,6.1,-2,-29,0.0
13750,1384,1,255,12.7,1,0,6.1,1,5,0.0
13760,1385,1,255,12.7,1,0,6.1,58,-51,0.0
13770,1386,1,255,12.7,1,0,6.1,23,-3,0.0
13780,1387,1,255,12.7,1,0,6.1,46,-78,0.0
13790,1388,1,255,12.7,1,0,6.1,-8,1,0.0
13800,1389,1,255,12.7,1,0,6.1,-8,-64,0.0
13810,1390,1,255,12.7,1,0,6.1,14,-77,0.0
13820,1391,1,255,12.7,1,0,6.1,1,-47,0.0
13830,1392,1,255,12.7,1,0,6.1,42,-51,0.0
13840,1393,1,255,12.7,1,0,6.1,61,-8,0.0
13850,1394,1,255,12.7,1,0,6.1,40,-29,0.0
13860,1395,1,255,12.7,1,0,6.1,26,0,0.0
13870,1396,1,255,12.7,1,0,6.1,44,105,0.0
13880,1397,1,255,12.7,1,0,6.1,-42,17,0.0
13890,1398,1,255,12.7,1,0,6.1,11,34,0.0
13900,1399,1,255,12.7,1,0,6.1,-65,0,0.0
13910,1400,1,255,12.7,1,0,6.1,0,52,0.0
13920,1401,1,255,12.7,1,0,6.1,-63,36,0.0
13930,1402,1,255,12.7,1,0,6.1,-55,40,0.0
13940,1403,1,255,12.7,1,0,6.1,22,55,0.0
13950,1404,1,255,12.7,1,0,6.1,-36,53,0.0
13960,1405,1,255,12.7,1,0,6.1,65,57,0.0
13970,1406,1,255,12.7,1,0,6.1,21,43,0.0
13980,1407,1,255,12.7,1,0,6.1,76,26,0.0
13990,1408,1,255,12.7,1,0,6.1,48,20,0.0
14000,1409,1,255,12.7,1,0,6.1,41,18,0.0
14010,1410,1,255,12.7,1,0,6.1,55,-7,0.0
14020,1411,1,255,12.7,1,0,6.1,20,-59,0.0
14030,1412,1,255,12.7,1,0,6.1,77,6,0.0
14040,1413,1,255,12.7,1,0,6.1,-11,-59,0.0
14050,1414,1,255,12.7,1,0,6.1,66,19,0.0
14060,1415,1,255,12.7,1,0,6.1,0,-25,0.0
14070,1416,1,255,12.7,1,0,6.1,50,45,0.0
14080,1417,1,255,12.7,1,0,6.1,-9,42,0.0
14090,1418,1,255,12.7,1,0,6.1,26,58,0.0
14100,1419,1,255,12.7,1,0,6.1,-35,121,0.0
14110,1420,1,255,12.7,1,0,6.1,-43,73,0.0
14120,1421,1,255,12.7,1,0,6.1,-36,95,0.0
14130,1422,1,255,12.7,1,0,6.1,-43,9,0.0
14140,1423,1,255,12.7,1,0,6.1,-54,4,0.0
14150,1424,1,255,12.7,1,0,6.1,-78,4,0.0
14160,1425,1,255,12.7,1,0,6.1,-64,-3,0.0
14170,1426,1,255,12.7,1,0,6.1,-78,14,0.0
14180,1427,1,255,12.7,1,0,6.1,-72,22,0.0
14190,1428,1,255,12.7,1,0,6.1,-38,-1,0.0
14200,1429,1,255,12.7,1,0,6.1,49,-48,0.0
14210,1430,1,255,12.7,1,0,6.1,-24,-30,0.0
14220,1431,1,255,12.7,1,0,6.1,-2,-69,0.0
14230,1432,1,255,12.7,1,0,6.1,5,-59,0.0
14240,1433,1,255,12.7,1,0,6.1,8,-57,0.0
14250,1434,1,255,12.7,1,0,6.1,9,-94,0.0
14260,1435,1,255,12.7,1,0,6.1,-9,-70,0.0
14270,1436,1,255,12.7,1,0,6.1,43,-72,0.0
14280,1437,1,255,12.7,1,0,6.1,14,-41,0.0
14290,1438,1,255,12.7,1,0,6.1,50,-60,0.0
14300,1439,1,255,12.7,1,0,6.1,63,-8,0.0
14310,1440,1,255,12.7,1,0,6.1,32,-34,0.0
14320,1441,1,255,12.7,1,0,6.1,61,11,0.0
14330,1442,1,255,12.7,1,0,6.1,45,-13,0.0
14340,1443,1,255,12.7,1,0,6.1,15,-3,0.0
14350,1444,1,255,12.7,1,0,6.1,-85,2,0.0
14360,1445,1,255,12.7,1,0,6.1,-70,-7,0.0
14370,1446,1,255,12.7,1,0,6.1,6,25,0.0
14380,1447,1,255,12.7,1,0,6.1,-59,9,0.0
14390,1448,1,255,12.7,1,0,6.1,-74,30,0.0
14400,1449,1,255,12.7,1,0,6.1,35,57,0.0
14410,1450,1,255,12.7,1,0,6.1,44,5,0.0
14420,1451,1,255,12.7,1,0,6.1,57,42,0.0
14430,1452,1,255,12.7,1,0,6.1,36,44,0.0
14440,1453,1,255,12.7,1,0,6.1,82,21,0.0
14450,1454,1,255,12.7,1,0,6.1,65,5,0.0
14460,1455,1,255,12.7,1,0,6.1,31,6,0.0
14470,1456,1,255,12.7,1,0,6.1,53,12,0.0
14480,1457,1,255,12.7,1,0,6.1,72,-52,0.0
14490,1458,1,255,12.7,1,0,6.1,83,-1,0.0
14500,1459,1,255,12.7,1,0,6.1,7,-59,0.0
14510,1460,1,255,12.7,1,0,6.1,57,7,0.0
14520,1461,1,255,12.7,1,0,6.1,-2,-50,0.0
14530,1462,1,255,12.7,1,0,6.1,57,53,0.0
14540,1463,1,255,12.7,1,0,6.1,-1,45,0.0
14550,1464,1,255,12.7,1,0,6.1,-3,59,0.0
14560,1465,1,255,12.7,1,0,6.1,5,55,0.0
14570,1466,1,255,12.7,1,0,6.1,-18,40,0.0
14580,1467,1,255,12.7,1,0,6.1,-32,65,0.0
14590,1468,1,255,12.7,1,0,6.1,-67,7,0.0
14600,1469,1,255,12.7,1,0,6.1,-68,19,0.0
14610,1470,1,255,12.7,1,0,6.1,-67,-8,0.0
14620,1471,1,255,12.7,1,0,6.1,-80,8,0.0
14630,1472,1,255,12.7,1,0,6.1,-85,-12,0.0
14640,1473,1,255,12.7,1,0,6.1,-22,-3,0.0
14650,1474,1,255,12.7,1,0,6.1,32,-17,0.0
14660,1475,1,255,12.7,1,0,6.1,38,52,0.0
14670,1476,1,255,12.7,1,0,6.1,-32,-22,0.0
14680,1477,1,255,12.7,1,0,6.1,46,-40,0.0
14690,1478,1,255,12.7,1,0,6.1,2,-76,0.0
14700,1479,1,255,12.7,1,0,5.9,-3,-60,0.0
14710,1480,1,255,12.7,1,0,5.9,4,-51,0.0
14720,1481,1,255,12.7,1,0,5.9,6,-59,0.0
14730,1482,1,255,12.7,1,0,5.9,-7,-62,0.0
14740,1483,1,255,12.7,1,0,5.9,26,-55,0.0
14750,1484,1,255,12.7,1,0,5.9,-4,-43,0.0
14760,1485,1,255,12.7,1,0,5.9,45,-67,0.0
14770,1486,1,255,12.7,1,0,5.9,63,1,0.0
14780,1487,1,255,12.7,1,0,5.9,36,-34,0.0
14790,1488,1,255,12.7,1,0,5.9,-3,55,0.0
14800,1489,1,255,12.7,1,0,5.9,-28,5,0.0
14810,1490,1,255,12.7,1,0,5.9,22,53,0.0
14820,1491,1,255,12.7,1,0,5.9,-50,-4,0.0
14830,1492,1,255,12.7,1,0,5.9,-5,18,0.0
14840,1493,1,255,12.7,1,0,5.9,-43,30,0.0
14850,1494,1,255,12.7,1,0,5.9,0,46,0.0
14860,1495,1,255,12.7,1,0,5.9,-39,66,0.0
14870,1496,1,255,12.7,1,0,5.9,-81,36,0.0
14880,1497,1,255,12.7,1,0,5.9,28,36,0.0
14890,1498,1,255,12.7,1,0,5.9,-5,43,0.0
14900,1499,1,255,12.7,1,0,5.9,56,62,0.0
14910,1500,1,255,12.7,1,0,5.9,67,27,0.0
14920,1501,1,255,12.7,1,0,5.9,33,13,0.0
14930,1502,1,255,12.7,1,0,5.9,28,23,0.0
14940,1503,1,255,12.7,1,0,5.9,68,9,0.0
14950,1504,1,255,12.7,1,0,5.9,99,-41,0.0
14960,1505,1,255,12.7,1,0,5.9,70,22,0.0
14970,1506,1,255,12.7,1,0,5.9,4,3,0.0
14980,1507,1,255,12.7,1,0,5.9,-8,-60,0.0
14990,1508,1,255,12.7,1,0,5.9,-2,9,0.0
15000,1509,1,255,12.7,1,0,5.9,72,53,0.0
15010,1510,1,255,12.7,1,0,5.9,12,59,0.0
15020,1511,1,255,12.7,1,0,5.9,-2,51,0.0
15030,1512,1,255,12.7,1,0,5.9,-38,60,0.0
15040,1513,1,255,12.7,1,0,5.9,13,28,0.0
15050,1514,1,255,12.7,1,0,5.9,-54,52,0.0
15060,1515,1,255,12.7,1,0,5.9,-19,23,0.0
15070,1516,1,255,12.7,1,0,5.9,-49,37,0.0
15080,1517,1,255,12.7,1,0,5.9,-65,26,0.0
15090,1518,1,255,12.7,1,0,5.9,-87,4,0.0
15100,1519,1,255,12.7,1,0,5.9,-94,50,0.0
15110,1520,1,255,12.7,1,0,5.9,2,0,0.0
15120,1521,1,255,12.7,1,0,5.9,-35,69,0.0
15130,1522,1,255,12.7,1,0,5.9,22,-36,0.0
15140,1523,1,255,12.7,1,0,5.9,-10,24,0.0
15150,1524,1,255,12.7,1,0,5.9,59,-72,0.0
15160,1525,1,255,12.7,1,0,5.9,-15,-9,0.0
15170,1526,1,255,12.7,1,0,5.9,57,-61,0.0
15180,1527,1,255,12.7,1,0,5.9,-21,-63,0.0
15190,1528,1,255,12.7,1,0,5.9,25,-111,0.0
15200,1529,1,255,12.7,1,0,5.9,13,-16,0.0
15210,1530,1,255,12.7,1,0,5.9,-19,-89,0.0
15220,1531,1,255,12.7,1,0,5.9,16,-38,0.0
15230,1532,1,255,12.7,1,0,5.9,31,-53,0.0
15240,1533,1,255,12.7,1,0,5.9,64,-3,0.0
15250,1534,1,255,12.7,1,0,5.9,6,50,0.0
15260,1535,1,255,12.7,1,0,5.9,-20,-23,0.0
15270,1536,1,255,12.7,1,0,5.9,49,69,0.0
15280,1537,1,255,12.7,1,0,5.9,-47,10,0.0
15290,1538,1,255,12.7,1,0,5.9,20,4,0.0
15300,1539,1,255,12.7,1,0,5.9,14,17,0.0
15310,1540,1,255,12.7,1,0,5.9,-46,35,0.0
15320,1541,1,255,12.7,1,0,5.9,-70,65,0.0
15330,1542,1,255,12.7,1,0,5.9,9,44,0.0
15340,1543,1,255,12.7,1,0,5.9,-61,33,0.0
15350,1544,1,255,12.7,1,0,5.9,-12,40,0.0
15360,1545,1,255,12.7,1,0,5.9,44,46,0.0
15370,1546,1,255,12.7,1,0,5.9,25,48,0.0
15380,1547,1,255,12.7,1,0,5.9,31,30,0.0
15390,1548,1,255,12.7,1,0,5.9,53,14,0.0
15400,1549,1,255,12.7,1,0,5.9,50,14,0.0
15410,1550,1,255,12.7,1,0,5.9,41,-67,0.0
15420,1551,1,255,12.7,1,0,5.9,35,-65,0.0
15430,1552,1,255,12.7,1,0,5.9,83,3,0.0
15440,1553,1,255,12.7,1,0,5.9,15,-59,0.0
15450,1554,1,255,12.7,1,0,5.9,69,25,0.0
15460,1555,1,255,12.7,1,0,5.9,2,-47,0.0
15470,1556,1,255,12.7,1,0,5.9,64,61,0.0
15480,1557,1,255,12.7,1,0,5.9,-9,25,0.0
15490,1558,1,255,12.7,1,0,5.9,63,54,0.0
15500,1559,1,255,12.7,1,0,5.9,22,31,0.0
15510,1560,1,255,12.7,1,0,5.9,-29,82,0.0
15520,1561,1,255,12.7,1,0,5.9,-22,56,0.0
15530,1562,1,255,12.7,1,0,5.9,-67,25,0.0
15540,1563,1,255,12.7,1,0,5.9,-48,27,0.0
15550,1564,1,255,12.7,1,0,5.9,-80,26,0.0
15560,1565,1,255,12.7,1,0,5.9,-56,73,0.0
15570,1566,1,255,12.7,1,0,5.9,-89,-4,0.0
15580,1567,1,255,12.7,1,0,5.9,13,-9,0.0
15590,1568,1,255,12.7,1,0,5.9,-39,2,0.0
15600,1569,1,255,12.7,1,0,5.9,19,-3,0.0
15610,1570,1,255,12.7,1,0,5.9,-22,3,0.0
15620,1571,1,255,12.7,1,0,5.9,29,-36,0.0
15630,1572,1,255,12.7,1,0,5.9,12,-92,0.0
15640,1573,1,255,12.7,1,0,5.9,-4,-49,0.0
15650,1574,1,255,12.7,1,0,5.9,29,-85,0.0
15660,1575,1,255,12.7,1,0,5.9,11,-33,0.0
15670,1576,1,255,12.7,1,0,5.9,0,-60,0.0
15680,1577,1,255,12.7,1,0,5.9,-5,-78,0.0
15690,1578,1,255,12.7,1,0,5.9,7,-57,0.0
15700,1579,1,255,12.7,1,0,5.9,15,-62,0.0
15710,1580,1,255,12.7,1,0,5.9,39,-19,0.0
15720,1581,1,255,12.7,1,0,5.9,-13,-17,0.0
15730,1582,1,255,12.7,1,0,5.9,49,59,0.0
15740,1583,1,255,12.7,1,0,5.9,-15,-7,0.0
15750,1584,1,255,12.7,1,0,5.9,36,63,0.0
15760,1585,1,255,12.7,1,0,5.9,-32,6,0.0
15770,1586,1,255,12.7,1,0,5.9,-68,10,0.0
15780,1587,1,255,12.7,1,0,5.9,7,-9,0.0
15790,1588,1,255,12.7,1,0,5.9,16,15,0.0
15800,1589,1,255,12.7,1,0,5.9,-44,64,0.0
15810,1590,1,255,12.7,1,0,5.9,-58,26,0.0
15820,1591,1,255,12.7,1,0,5.9,49,47,0.0
15830,1592,1,255,12.7,1,0,5.9,14,46,0.0
15840,1593,1,255,12.7,1,0,5.9,22,42,0.0
15850,1594,1,255,12.7,1,0,5.9,50,18,0.0
15860,1595,1,255,12.7,1,0,5.9,55,10,0.0
15870,1596,1,255,12.7,1,0,5.9,76,-50,0.0
15880,1597,1,255,12.7,1,0,5.9,97,-8,0.0
15890,1598,1,255,12.7,1,0,5.9,3,-50,0.0
15900,1599,1,255,12.7,1,0,5.9,87,1,0.0
15910,1600,1,255,12.7,1,0,5.9,12,-69,0.0
15920,1601,1,255,12.7,1,0,5.9,55,23,0.0
15930,1602,1,255,12.7,1,0,5.9,-7,-45,0.0
15940,1603,1,255,12.7,1,0,5.9,62,42,0.0
15950,1604,1,255,12.7,1,0,5.9,-10,39,0.0
15960,1605,1,255,12.7,1,0,5.9,3,65,0.0
15970,1606,1,255,12.7,1,0,5.9,-52,63,0.0
15980,1607,1,255,12.7,1,0,5.9,-24,102,0.0
15990,1608,1,255,12.7,1,0,5.9,-59,14,0.0
16000,1609,1,255,12.7,1,0,5.9,-45,6,0.0
16010,1610,1,255,12.7,1,0,5.9,-76,15,0.0
16020,1611,1,255,12.7,1,0,5.9,-41,-3,0.0
16030,1612,1,255,12.7,1,0,5.9,-85,57,0.0
16040,1613,1,255,12.7,1,0,5.9,-57,9,0.0
16050,1614,1,255,12.7,1,0,5.9,0,20,0.0
16060,1615,1,255,12.7,1,0,5.9,-40,-24,0.0
16070,1616,1,255,12.7,1,0,5.9,46,-46,0.0
16080,1617,1,255,12.7,1,0,5.9,-11,-62,0.0
16090,1618,1,255,12.7,1,0,5.9,61,-57,0.0
16100,1619,1,255,12.7,1,0,5.9,7,-60,0.0
16110,1620,1,255,12.7,1,0,5.9,44,-50,0.0
16120,1621,1,255,12.7,1,0,5.9,10,-97,0.0
16130,1622,1,255,12.7,1,0,5.9,25,-99,0.0
16140,1623,1,255,12.7,1,0,5.9,1,-59,0.0
16150,1624,1,255,12.7,1,0,5.9,32,-38,0.0
16160,1625,1,255,12.7,1,0,5.9,42,-56,0.0
16170,1626,1,255,12.7,1,0,5.9,74,39,0.0
16180,1627,1,255,12.7,1,0,5.9,30,-18,0.0
16190,1628,1,255,12.7,1,0,5.9,-18,67,0.0
16200,1629,1,255,12.7,1,0,5.9,-13,8,0.0
16210,1630,1,255,12.7,1,0,5.9,8,51,0.0
16220,1631,1,255,12.7,1,0,5.9,-34,9,0.0
16230,1632,1,255,12.7,1,0,5.9,-55,-1,0.0
16240,1633,1,255,12.7,1,0,5.9,-13,39,0.0
16250,1634,1,255,12.7,1,0,5.9,-66,64,0.0
16260,1635,1,255,12.7,1,0,5.9,-23,70,0.0
16270,1636,1,255,12.7,1,0,5.9,-68,58,0.0
16280,1637,1,255,12.7,1,0,5.9,38,37,0.0
16290,1638,1,255,12.7,1,0,5.9,38,52,0.0
16300,1639,1,255,12.7,1,0,5.9,35,45,0.0
16310,1640,1,255,12.7,1,0,5.9,44,40,0.0
16320,1641,1,255,12.7,1,0,5.9,130,-13,0.0
16330,1642,1,255,12.7,1,0,5.9,86,11,0.0
16340,1643,1,255,12.7,1,0,5.9,57,-61,0.0
16350,1644,1,255,12.7,1,0,5.9,73,-5,0.0
16360,1645,1,255,12.7,1,0,5.9,8,-59,0.0
16370,1646,1,255,12.7,1,0,5.9,59,18,0.0
16380,1647,1,255,12.7,1,0,5.9,-10,-32,0.0
16390,1648,1,255,12.7,1,0,5.9,51,72,0.0
16400,1649,1,255,12.7,1,0,5.9,-19,63,0.0
16410,1650,1,255,12.7,1,0,5.9,64,49,0.0
16420,1651,1,255,12.7,1,0,5.9,35,65,0.0
16430,1652,1,255,12.7,1,0,5.9,-70,64,0.0
16440,1653,1,255,12.7,1,0,5.9,-27,57,0.0
16450,1654,1,255,12.7,1,0,5.9,-78,27,0.0
16460,1655,1,255,12.7,1,0,5.9,-48,22,0.0
16470,1656,1,255,12.7,1,0,5.9,-46,2,0.0
16480,1657,1,255,12.7,1,0,5.9,-16,66,0.0
16490,1658,1,255,12.7,1,0,5.9,-85,-5,0.0
16500,1659,1,255,12.7,1,0,5.9,-56,4,0.0
16510,1660,1,255,12.7,1,0,5.9,-49,-7,0.0
16520,1661,1,255,12.7,1,0,5.9,-70,7,0.0
16530,1662,1,255,12.7,1,0,5.9,-9,-22,0.0
16540,1663,1,255,12.7,1,0,5.9,-16,-20,0.0
16550,1664,1,255,12.7,1,0,5.9,2,-33,0.0
16560,1665,1,255,12.7,1,0,5.9,15,-67,0.0
16570,1666,1,255,12.7,1,0,5.9,12,-35,0.0
16580,1667,1,255,12.7,1,0,5.9,-9,-66,0.0
16590,1668,1,255,12.7,1,0,5.9,-1,-24,0.0
16600,1669,1,255,12.7,1,0,5.9,-1,-75,0.0
16610,1670,1,255,12.7,1,0,5.9,4,-63,0.0
16620,1671,1,255,12.7,1,0,5.9,54,-32,0.0
16630,1672,1,255,12.7,1,0,5.9,23,-2,0.0
16640,1673,1,255,12.7,1,0,5.9,9,-19,0.0
16650,1674,1,255,12.7,1,0,5.9,72,42,0.0
16660,1675,1,255,12.7,1,0,5.9,-30,13,0.0
16670,1676,1,255,12.7,1,0,5.9,-21,-6,0.0
16680,1677,1,255,12.7,1,0,5.9,-46,-2,0.0
16690,1678,1,255,12.7,1,0,5.9,7,3,0.0
16700,1679,1,255,12.7,1,0,5.9,-137,12,0.0
16710,1680,1,255,12.7,1,0,5.9,-15,60,0.0
16720,1681,1,255,12.7,1,0,5.9,-53,67,0.0
16730,1682,1,255,12.7,1,0,5.9,-8,56,0.0
16740,1683,1,255,12.7,1,0,5.9,-77,38,0.0
16750,1684,1,255,12.7,1,0,5.9,-7,37,0.0
16760,1685,1,255,12.7,1,0,5.9,15,49,0.0
16770,1686,1,255,12.7,1,0,5.9,46,26,0.0
16780,1687,1,255,12.7,1,0,5.9,39,-58,0.0
16790,1688,1,255,12.7,1,0,5.9,39,-31,0.0
16800,1689,1,255,12.7,1,0,5.9,26,-26,0.0
16810,1690,1,255,12.7,1,0,5.9,51,6,0.0
16820,1691,1,255,12.7,1,0,5.9,99,-10,0.0
16830,1692,1,255,12.7,1,0,5.9,74,11,0.0
16840,1693,1,255,12.7,1,0,5.9,65,2,0.0
16850,1694,1,255,12.7,1,0,5.9,8,4,0.0
16860,1695,1,255,12.7,1,0,5.9,50,27,0.0
16870,1696,1,255,12.7,1,0,5.9,64,65,0.0
16880,1697,1,255,12.7,1,0,5.9,-9,57,0.0
16890,1698,1,255,12.7,1,0,5.9,75,61,0.0
16900,1699,1,255,12.7,1,0,5.9,-10,55,0.0
16910,1700,1,255,12.7,1,0,5.9,-34,33,0.0
16920,1701,1,255,12.7,1,0,5.9,-29,35,0.0
16930,1702,1,255,12.7,1,0,5.9,-53,85,0.0
16940,1703,1,255,12.7,1,0,5.9,-108,71,0.0
16950,1704,1,255,12.7,1,0,5.9,-2,5,0.0
16960,1705,1,255,12.7,1,0,5.9,-75,72,0.0
16970,1706,1,255,12.7,1,0,5.9,6,11,0.0
16980,1707,1,255,12.7,1,0,5.9,-47,56,0.0
16990,1708,1,255,12.7,1,0,5.9,-58,-8,0.0
17000,1709,1,255,12.7,1,0,5.9,19,-2,0.0
17010,1710,1,255,12.7,1,0,5.9,-39,37,0.0
17020,1711,1,255,12.7,1,0,5.9,28,-30,0.0
17030,1712,1,255,12.7,1,0,5.9,16,-24,0.0
17040,1713,1,255,12.7,1,0,5.9,73,-93,0.0
17050,1714,1,255,12.7,1,0,5.9,1,-50,0.0
17060,1715,1,255,12.7,1,0,5.9,18,-91,0.0
17070,1716,1,255,12.7,1,0,5.9,-4,-83,0.0
17080,1717,1,255,12.7,1,0,5.9,8,-76,0.0
17090,1718,1,255,12.7,1,0,5.9,27,15,0.0
17100,1719,1,255,12.7,1,0,5.9,-34,-30,0.0
17110,1720,1,255,12.7,1,0,5.9,33,10,0.0
17120,1721,1,255,12.7,1,0,5.9,-28,-17,0.0
17130,1722,1,255,12.7,1,0,5.9,50,36,0.0
17140,1723,1,255,12.7,1,0,5.9,-14,-9,0.0
17150,1724,1,255,12.7,1,0,5.9,38,55,0.0
17160,1725,1,255,12.7,1,0,5.9,-35,3,0.0
17170,1726,1,255,12.7,1,0,5.9,-35,0,0.0
17180,1727,1,255,12.7,1,0,5.9,6,27,0.0
17190,1728,1,255,12.7,1,0,5.9,-53,16,0.0
17200,1729,1,255,12.7,1,0,5.9,-64,39,0.0
17210,1730,1,255,12.7,1,0,5.9,-2,37,0.0
17220,1731,1,255,12.7,1,0,5.9,4,84,0.0
17230,1732,1,255,12.7,1,0,5.9,0,37,0.0
17240,1733,1,255,12.7,1,0,5.9,60,-65,0.0
17250,1734,1,255,12.7,1,0,5.9,39,44,0.0
17260,1735,1,255,12.7,1,0,5.9,43,28,0.0
17270,1736,1,255,12.7,1,0,5.9,52,-38,0.0
17280,1737,1,255,12.7,1,0,5.9,89,14,0.0
17290,1738,1,255,12.7,1,0,5.9,50,-66,0.0
17300,1739,1,255,12.7,1,0,5.9,104,10,0.0
17310,1740,1,255,12.7,1,0,5.9,32,5,0.0
17320,1741,1,255,12.7,1,0,5.9,11,-54,0.0
17330,1742,1,255,12.7,1,0,5.9,75,17,0.0
17340,1743,1,255,12.7,1,0,5.9,2,-23,0.0
17350,1744,1,255,12.7,1,0,5.9,66,59,0.0
17360,1745,1,255,12.7,1,0,5.9,26,33,0.0
17370,1746,1,255,12.7,1,0,5.9,-13,63,0.0
17380,1747,1,255,12.7,1,0,5.9,7,60,0.0
17390,1748,1,255,12.7,1,0,5.9,-30,39,0.0
17400,1749,1,255,12.7,1,0,5.9,-53,46,0.0
17410,1750,1,255,12.7,1,0,5.9,-4,25,0.0
17420,1751,1,255,12.7,1,0,5.9,-47,-21,0.0
17430,1752,1,255,12.7,1,0,5.9,-108,-3,0.0
17440,1753,1,255,12.7,1,0,5.9,-48,-12,0.0
17450,1754,1,255,12.7,1,0,5.9,-7,6,0.0
17460,1755,1,255,12.7,1,0,5.9,-56,-6,0.0
17470,1756,1,255,12.7,1,0,5.9,-3,-4,0.0
17480,1757,1,255,12.7,1,0,5.9,42,-50,0.0
17490,1758,1,255,12.7,1,0,5.9,-23,-36,0.0
17500,1759,1,255,12.7,1,0,5.9,54,-79,0.0
17510,1760,1,255,12.7,1,0,5.9,16,-26,0.0
17520,1761,1,255,12.7,1,0,5.9,-11,-67,0.0
17530,1762,1,255,12.7,1,0,5.9,-19,-35,0.0
17540,1763,1,255,12.7,1,0,5.9,32,-31,0.0
17550,1764,1,255,12.7,1,0,5.9,69,-84,0.0
17560,1765,1,255,12.7,1,0,5.9,23,-59,0.0
17570,1766,1,255,12.7,1,0,5.9,-23,-68,0.0
17580,1767,1,255,12.7,1,0,5.9,55,-66,0.0
17590,1768,1,255,12.7,1,0,5.9,-22,-65,0.0
17600,1769,1,255,12.7,1,0,5.9,9,-41,0.0
17610,1770,1,255,12.7,1,0,5.9,-11,-21,0.0
17620,1771,1,255,12.7,1,0,5.9,-36,-6,0.0
17630,1772,1,255,12.7,1,0,5.9,-21,1,0.0
17640,1773,1,255,12.7,1,0,5.9,-43,-7,0.0
17650,1774,1,255,12.7,1,0,5.9,-34,4,0.0
17660,1775,1,255,12.7,1,0,5.9,4,18,0.0
17670,1776,1,255,12.7,1,0,5.9,-8,2,0.0
17680,1777,1,255,12.7,1,0,5.9,-13,-4,0.0
17690,1778,1,255,12.7,1,0,5.9,12,6,0.0
17700,1779,1,255,12.7,1,0,5.9,29,9,0.0
17710,1780,1,255,12.7,1,0,5.9,39,39,0.0
17720,1781,1,255,12.7,1,0,5.9,3,55,0.0
17730,1782,1,255,12.7,1,0,5.9,38,38,0.0
17740,1783,1,255,12.7,1,0,5.9,53,44,0.0
17750,1784,1,255,12.7,1,0,5.9,107,29,0.0
17760,1785,1,255,12.7,1,0,5.9,28,1,0.0
17770,1786,1,255,12.7,1,0,5.9,36,-59,0.0
17780,1787,1,255,12.7,1,0,5.9,22,13,0.0
17790,1788,1,255,12.7,1,0,5.9,72,-1,0.0
17800,1789,1,255,12.7,1,0,5.9,27,10,0.0
17810,1790,1,255,12.7,1,0,5.9,56,31,0.0
17820,1791,1,255,12.7,1,0,5.9,-5,-11,0.0
17830,1792,1,255,12.7,1,0,5.9,-13,18,0.0
17840,1793,1,255,12.7,1,0,5.9,3,53,0.0
17850,1794,1,255,12.7,1,0,5.9,-34,70,0.0
17860,1795,1,255,12.7,1,0,5.9,-1,21,0.0
17870,1796,1,255,12.7,1,0,5.9,-53,79,0.0
17880,1797,1,255,12.7,1,0,5.9,-19,33,0.0
17890,1798,1,255,12.7,1,0,5.9,-39,73,0.0
17900,1799,1,255,12.7,1,0,5.9,-40,12,0.0
17910,1800,1,255,12.7,1,0,5.9,-65,49,0.0
17920,1801,1,255,12.7,1,0,5.9,-39,-8,0.0
17930,1802,1,255,12.7,1,0,5.9,-60,29,0.0
17940,1803,1,255,12.7,1,0,5.9,-26,-10,0.0
17950,1804,1,255,12.7,1,0,5.9,-52,70,0.0
17960,1805,1,255,12.7,1,0,5.9,23,-55,0.0
17970,1806,1,255,12.7,1,0,5.9,-25,-10,0.0
17980,1807,1,255,12.7,1,0,5.9,-21,-34,0.0
17990,1808,1,255,12.7,1,0,5.9,26,-27,0.0
18000,1809,1,255,12.7,1,0,5.9,-6,-67,0.0
18010,1810,1,255,12.7,1,0,6.1,3,-74,0.0
18020,1811,1,255,12.7,1,0,6.1,17,-84,0.0
18030,1812,1,255,12.7,1,0,6.1,14,-69,0.0
18040,1813,1,255,12.7,1,0,6.1,37,-88,0.0
18050,1814,1,255,12.7,1,0,6.1,-18,-83,0.0
18060,1815,1,255,12.7,1,0,6.1,-14,-17,0.0
18070,1816,1,255,12.7,1,0,6.1,5,-9,0.0
18080,1817,1,255,12.7,1,0,6.1,-8,1,0.0
18090,1818,1,255,12.7,1,0,6.1,-13,-6,0.0
18100,1819,1,255,12.7,1,0,6.1,-14,-3,0.0
18110,1820,1,255,12.7,1,0,6.1,-13,15,0.0
18120,1821,1,255,12.7,1,0,6.1,20,9,0.0
18130,1822,1,255,12.7,1,0,6.1,24,4,0.0
18140,1823,1,255,12.7,1,0,6.1,-6,-5,0.0
18150,1824,1,255,12.7,1,0,6.1,1,15,0.0
18160,1825,1,255,12.7,1,0,6.1,-58,-30,0.0
18170,1826,1,255,12.7,1,0,6.1,19,37,0.0
18180,1827,1,255,12.7,1,0,6.1,5,49,0.0
18190,1828,1,255,12.7,1,0,6.1,49,12,0.0
18200,1829,1,255,12.7,1,0,6.1,63,73,0.0
18210,1830,1,255,12.7,1,0,6.1,28,53,0.0
18220,1831,1,255,12.7,1,0,6.1,46,28,0.0
18230,1832,1,255,12.7,1,0,6.1,55,28,0.0
18240,1833,1,255,12.7,1,0,6.1,108,21,0.0
18250,1834,1,255,12.7,1,0,6.1,56,2,0.0
18260,1835,1,255,12.7,1,0,6.1,87,1,0.0
18270,1836,1,255,12.7,1,0,6.1,65,7,0.0
18280,1837,1,255,12.7,1,0,6.1,-3,17,0.0
18290,1838,1,255,12.7,1,0,6.1,19,2,0.0
18300,1839,1,255,12.7,1,0,6.1,-6,-9,0.0
18310,1840,1,255,12.7,1,0,6.1,3,30,0.0
18320,1841,1,255,12.7,1,0,6.1,45,43,0.0
18330,1842,1,255,12.7,1,0,6.1,-11,88,0.0
18340,1843,1,255,12.7,1,0,6.1,-31,27,0.0
18350,1844,1,255,12.7,1,0,6.1,12,20,0.0
18360,1845,1,255,12.7,1,0,6.1,-24,61,0.0
18370,1846,1,255,12.7,1,0,6.1,-79,22,0.0
18380,1847,1,255,12.7,1,0,6.1,-47,36,0.0
18390,1848,1,255,12.7,1,0,6.1,-109,5,0.0
18400,1849,1,255,12.7,1,0,6.1,-46,5,0.0
18410,1850,1,255,12.7,1,0,6.1,-61,-10,0.0
18420,1851,1,255,12.7,1,0,6.1,-28,-1,0.0
18430,1852,1,255,12.7,1,0,6.1,-29,13,0.0
18440,1853,1,255,12.7,1,0,6.1,-36,-15,0.0
18450,1854,1,255,12.7,1,0,6.1,-9,-9,0.0
18460,1855,1,255,12.7,1,0,6.1,-18,-22,0.0
18470,1856,1,255,12.7,1,0,6.1,-7,-55,0.0
18480,1857,1,255,12.7,1,0,6.1,5,-47,0.0
18490,1858,1,255,12.7,1,0,6.1,13,-44,0.0
18500,1859,1,255,12.7,1,0,6.1,1,-70,0.0
18510,1860,1,255,12.7,1,0,6.1,10,-99,0.0
18520,1861,1,255,12.7,1,0,6.1,-1,-65,0.0
18530,1862,1,255,12.7,1,0,6.1,8,-63,0.0
18540,1863,1,255,12.7,1,0,6.1,26,-27,0.0
18550,1864,1,255,12.7,1,0,6.1,66,-27,0.0
18560,1865,1,255,12.7,1,0,6.1,-45,-14,0.0
18570,1866,1,255,12.7,1,0,6.1,54,37,0.0
18580,1867,1,255,12.7,1,0,6.1,0,7,0.0
18590,1868,1,255,12.7,1,0,6.1,37,8,0.0
18600,1869,1,255,12.7,1,0,6.1,18,8,0.0
18610,1870,1,255,12.7,1,0,6.1,3,-14,0.0
18620,1871,1,255,12.7,1,0,6.1,-45,20,0.0
18630,1872,1,255,12.7,1,0,6.1,16,-7,0.0
18640,1873,1,255,12.7,1,0,6.1,-42,-11,0.0
18650,1874,1,255,12.7,1,0,6.1,-8,33,0.0
18660,1875,1,255,12.7,1,0,6.1,-48,72,0.0
18670,1876,1,255,12.7,1,0,6.1,-47,46,0.0
18680,1877,1,255,12.7,1,0,6.1,52,32,0.0
18690,1878,1,255,12.7,1,0,6.1,42,-24,0.0
18700,1879,1,255,12.7,1,0,6.1,106,37,0.0
18710,1880,1,255,12.7,1,0,6.1,119,17,0.0
18720,1881,1,255,12.7,1,0,6.1,71,-3,0.0
18730,1882,1,255,12.7,1,0,6.1,19,-11,0.0
18740,1883,1,255,12.7,1,0,6.1,13,-5,0.0
18750,1884,1,255,12.7,1,0,6.1,15,2,0.0
18760,1885,1,255,12.7,1,0,6.1,-13,7,0.0
18770,1886,1,255,12.7,1,0,6.1,5,-17,0.0
18780,1887,1,255,12.7,1,0,6.1,60,42,0.0
18790,1888,1,255,12.7,1,0,6.1,67,52,0.0
18800,1889,1,255,12.7,1,0,6.1,-24,25,0.0
18810,1890,1,255,12.7,1,0,6.1,-27,61,0.0
18820,1891,1,255,12.7,1,0,6.1,-70,35,0.0
18830,1892,1,255,12.7,1,0,6.1,-46,110,0.0
18840,1893,1,255,12.7,1,0,6.1,-22,20,0.0
18850,1894,1,255,12.7,1,0,6.1,-75,76,0.0
18860,1895,1,255,12.7,1,0,6.1,-93,-5,0.0
18870,1896,1,255,12.7,1,0,6.1,-32,9,0.0
18880,1897,1,255,12.7,1,0,6.1,-58,-4,0.0
18890,1898,1,255,12.7,1,0,6.1,0,1,0.0
18900,1899,1,255,12.7,1,0,6.1,-46,-4,0.0
18910,1900,1,255,12.7,1,0,6.1,-46,5,0.0
18920,1901,1,255,12.7,1,0,6.1,-16,4,0.0
18930,1902,1,255,12.7,1,0,6.1,-18,-33,0.0
18940,1903,1,255,12.7,1,0,6.1,-18,-32,0.0
18950,1904,1,255,12.7,1,0,6.1,50,-87,0.0
18960,1905,1,255,12.7,1,0,6.1,15,-70,0.0
18970,1906,1,255,12.7,1,0,6.1,16,-5,0.0
18980,1907,1,255,12.7,1,0,6.1,0,-87,0.0
18990,1908,1,255,12.7,1,0,6.1,7,-25,0.0
19000,1909,1,255,12.7,1,0,6.1,-11,-81,0.0
19010,1910,1,255,12.7,1,0,6.1,42,-48,0.0
19020,1911,1,255,12.7,1,0,6.1,-17,-74,0.0
19030,1912,1,255,12.7,1,0,6.1,-13,-21,0.0
19040,1913,1,255,12.7,1,0,6.1,6,-9,0.0
19050,1914,1,255,12.7,1,0,6.1,35,8,0.0
19060,1915,1,255,12.7,1,0,6.1,48,-3,0.0
19070,1916,1,255,12.7,1,0,6.1,36,5,0.0
19080,1917,1,255,12.7,1,0,6.1,-87,-1,0.0
19090,1918,1,255,12.7,1,0,6.1,7,50,0.0
19100,1919,1,255,12.7,1,0,6.1,-86,-1,0.0
19110,1920,1,255,12.7,1,0,6.1,-48,63,0.0
19120,1921,1,255,12.7,1,0,6.1,-13,32,0.0
19130,1922,1,255,12.7,1,0,6.1,-55,55,0.0
19140,1923,1,255,12.7,1,0,6.1,25,46,0.0
19150,1924,1,255,12.7,1,0,6.1,47,-6,0.0
19160,1925,1,255,12.7,1,0,6.1,29,57,0.0
19170,1926,1,255,12.7,1,0,6.1,31,22,0.0
19180,1927,1,255,12.7,1,0,6.1,37,-50,0.0
19190,1928,1,255,12.7,1,0,6.1,80,5,0.0
19200,1929,1,255,12.7,1,0,6.1,23,-13,0.0
19210,1930,1,255,12.7,1,0,6.1,29,1,0.0
19220,1931,1,255,12.7,1,0,6.1,27,9,0.0
19230,1932,1,255,12.7,1,0,6.1,56,11,0.0
19240,1933,1,255,12.7,1,0,6.1,70,19,0.0
19250,1934,1,255,12.7,1,0,6.1,-5,-48,0.0
19260,1935,1,255,12.7,1,0,6.1,62,55,0.0
19270,1936,1,255,12.7,1,0,6.1,-12,16,0.0
19280,1937,1,255,12.7,1,0,6.1,52,52,0.0
19290,1938,1,255,12.7,1,0,6.1,-53,110,0.0
19300,1939,1,255,12.7,1,0,6.1,-28,68,0.0
19310,1940,1,255,12.7,1,0,6.1,-18,34,0.0
19320,1941,1,255,12.7,1,0,6.1,-55,23,0.0
19330,1942,1,255,12.7,1,0,6.1,-43,1,0.0
19340,1943,1,255,12.7,1,0,6.1,-74,66,0.0
19350,1944,1,255,12.7,1,0,6.1,-87,-14,0.0
19360,1945,1,255,12.7,1,0,6.1,-71,-11,0.0
19370,1946,1,255,12.7,1,0,6.1,-58,-10,0.0
19380,1947,1,255,12.7,1,0,6.1,25,60,0.0
19390,1948,1,255,12.7,1,0,6.1,-28,45,0.0
19400,1949,1,255,12.7,1,0,6.1,33,-30,0.0
19410,1950,1,255,12.7,1,0,6.1,-5,-46,0.0
19420,1951,1,255,12.7,1,0,6.1,68,-33,0.0
19430,1952,1,255,12.7,1,0,6.1,7,-52,0.0
19440,1953,1,255,12.7,1,0,6.1,16,-29,0.0
19450,1954,1,255,12.7,1,0,6.1,12,-74,0.0
19460,1955,1,255,12.7,1,0,6.1,14,-96,0.0
19470,1956,1,255,12.7,1,0,6.1,-20,-88,0.0
19480,1957,1,255,12.7,1,0,6.1,2,-26,0.0
19490,1958,1,255,12.7,1,0,6.1,43,31,0.0
19500,1959,1,255,12.7,1,0,6.1,-5,-32,0.0
19510,1960,1,255,12.7,1,0,6.1,45,-10,0.0
19520,1961,1,255,12.7,1,0,6.1,55,-10,0.0
19530,1962,1,255,12.7,1,0,6.1,51,0,0.0
19540,1963,1,255,12.7,1,0,6.1,-34,-18,0.0
19550,1964,1,255,12.7,1,0,6.1,-32,-4,0.0
19560,1965,1,255,12.7,1,0,6.1,13,59,0.0
19570,1966,1,255,12.7,1,0,6.1,-49,39,0.0
19580,1967,1,255,12.7,1,0,6.1,13,45,0.0
19590,1968,1,255,12.7,1,0,6.1,-41,62,0.0
19600,1969,1,255,12.7,1,0,6.1,12,26,0.0
19610,1970,1,255,12.7,1,0,6.1,-69,42,0.0
19620,1971,1,255,12.7,1,0,6.1,-51,28,0.0
19630,1972,1,255,12.7,1,0,6.1,37,33,0.0
19640,1973,1,255,12.7,1,0,6.1,62,41,0.0
19650,1974,1,255,12.7,1,0,6.1,109,13,0.0
19660,1975,1,255,12.7,1,0,6.1,69,7,0.0
19670,1976,1,255,12.7,1,0,6.1,20,1,0.0
19680,1977,1,255,12.7,1,0,6.1,37,15,0.0
19690,1978,1,255,12.7,1,0,6.1,7,-10,0.0
19700,1979,1,255,12.7,1,0,6.1,60,-35,0.0
19710,1980,1,255,12.7,1,0,6.1,-10,26,0.0
19720,1981,1,255,12.7,1,0,6.1,51,27,0.0
19730,1982,1,255,12.7,1,0,6.1,-10,65,0.0
19740,1983,1,255,12.7,1,0,6.1,77,43,0.0
19750,1984,1,255,12.7,1,0,6.1,93,58,0.0
19760,1985,1,255,12.7,1,0,6.1,-59,57,0.0
19770,1986,1,255,12.7,1,0,6.1,-19,29,0.0
19780,1987,1,255,12.7,1,0,6.1,-51,44,0.0
19790,1988,1,255,12.7,1,0,6.1,-63,58,0.0
19800,1989,1,255,12.7,1,0,6.1,-55,11,0.0
19810,1990,1,255,12.7,1,0,6.1,-83,7,0.0
19820,1991,1,255,12.7,1,0,6.1,-90,-7,0.0
19830,1992,1,255,12.7,1,0,6.1,-79,2,0.0
19840,1993,1,255,12.7,1,0,6.1,12,2,0.0
19850,1994,1,255,12.7,1,0,6.1,20,-13,0.0
19860,1995,1,255,12.7,1,0,6.1,-37,51,0.0
19870,1996,1,255,12.7,1,0,6.1,36,-70,0.0
19880,1997,1,255,12.7,1,0,6.1,-11,-16,0.0
19890,1998,1,255,12.7,1,0,6.1,64,-86,0.0
19900,1999,1,255,12.7,1,0,6.1,-3,-42,0.0
19910,2000,1,255,12.7,1,0,6.1,44,-108,0.0
19920,2001,1,255,12.7,1,0,6.1,11,-20,0.0
19930,2002,1,255,12.7,1,0,6.1,-13,-78,0.0
19940,2003,1,255,12.7,1,0,6.1,-5,0,0.0
19950,2004,1,255,12.7,1,0,6.1,3,-35,0.0
19960,2005,1,255,12.7,1,0,6.1,70,-15,0.0
19970,2006,1,255,12.7,1,0,6.1,71,-35,0.0
19980,2007,1,255,12.7,1,0,6.1,32,-22,0.0
19990,2008,1,255,12.7,1,0,6.1,-21,5,0.0
20000,2009,1,255,12.7,1,0,6.1,-17,7,0.0
20010,2010,1,255,12.7,1,0,6.1,-36,7,0.0
20020,2011,1,255,12.7,1,0,6.1,-3,22,0.0
20030,2012,1,255,12.7,1,0,6.1,17,11,0.0
20040,2013,1,255,12.7,1,0,6.1,-46,8,0.0
20050,2014,1,255,12.7,1,0,6.1,-1,50,0.0
20060,2015,1,255,12.7,1,0,6.1,-7,20,0.0
20070,2016,1,255,12.7,1,0,6.1,14,48,0.0
20080,2017,1,255,12.7,1,0,6.1,-42,-23,0.0
20090,2018,1,255,12.7,1,0,6.1,61,63,0.0
20100,2019,1,255,12.7,1,0,6.1,29,-10,0.0
20110,2020,1,255,12.7,1,0,6.1,87,9,0.0
20120,2021,1,255,12.7,1,0,6.1,39,23,0.0
20130,2022,1,255,12.7,1,0,6.1,42,-3,0.0
20140,2023,1,255,12.7,1,0,6.1,48,18,0.0
20150,2024,1,255,12.7,1,0,6.1,80,-51,0.0
20160,2025,1,255,12.7,1,0,6.1,87,-27,0.0
20170,2026,1,255,12.7,1,0,6.1,66,3,0.0
20180,2027,1,255,12.7,1,0,6.1,-6,36,0.0
20190,2028,1,255,12.7,1,0,6.1,2,-46,0.0
20200,2029,1,255,12.7,1,0,6.1,55,45,0.0
20210,2030,1,255,12.7,1,0,6.1,-6,47,0.0
20220,2031,1,255,12.7,1,0,6.1,-1,35,0.0
20230,2032,1,255,12.7,1,0,6.1,-45,114,0.0
20240,2033,1,255,12.7,1,0,6.1,-44,55,0.0
20250,2034,1,255,12.7,1,0,6.1,-51,92,0.0
20260,2035,1,255,12.7,1,0,6.1,-44,24,0.0
20270,2036,1,255,12.7,1,0,6.1,-46,-4,0.0
20280,2037,1,255,12.7,1,0,6.1,-82,11,0.0
20290,2038,1,255,12.7,1,0,6.1,-81,-23,0.0
20300,2039,1,255,12.7,1,0,6.1,-79,-67,0.0
20310,2040,1,255,12.7,1,0,6.1,24,8,0.0
20320,2041,1,255,12.7,1,0,6.1,-59,22,0.0
20330,2042,1,255,12.7,1,0,6.1,45,-23,0.0
20340,2043,1,255,12.7,1,0,6.1,-12,-62,0.0
20350,2044,1,255,12.7,1,0,6.1,57,-25,0.0
20360,2045,1,255,12.7,1,0,6.1,67,-66,0.0
20370,2046,1,255,12.7,1,0,6.1,2,-84,0.0
20380,2047,1,255,12.7,1,0,6.1,16,-48,0.0
20390,2048,1,255,12.7,1,0,6.1,24,-80,0.0
20400,2049,1,255,12.7,1,0,6.1,-9,-98,0.0
20410,2050,1,255,12.7,1,0,6.1,16,-84,0.0
20420,2051,1,255,12.7,1,0,6.1,24,-42,0.0
20430,2052,1,255,12.7,1,0,6.1,31,-55,0.0
20440,2053,1,255,12.7,1,0,6.1,57,-6,0.0
20450,2054,1,255,12.7,1,0,6.1,56,-25,0.0
20460,2055,1,255,12.7,1,0,6.1,36,2,0.0
20470,2056,1,255,12.7,1,0,6.1,50,1,0.0
20480,2057,1,255,12.7,1,0,6.1,29,4,0.0
20490,2058,1,255,12.7,1,0,6.1,5,5,0.0
20500,2059,1,255,12.7,1,0,6.1,14,66,0.0
20510,2060,1,255,12.7,1,0,6.1,-12,4,0.0
20520,2061,1,255,12.7,1,0,6.1,-57,37,0.0
20530,2062,1,255,12.7,1,0,6.1,-8,50,0.0
20540,2063,1,255,12.7,1,0,6.1,9,-28,0.0
20550,2064,1,255,12.7,1,0,6.1,-24,3,0.0
20560,2065,1,255,12.7,1,0,6.1,-32,50,0.0
20570,2066,1,255,12.7,1,0,6.1,32,38,0.0
20580,2067,1,255,12.7,1,0,6.1,52,33,0.0
20590,2068,1,255,12.7,1,0,6.1,32,22,0.0
20600,2069,1,255,12.7,1,0,6.1,30,29,0.0
20610,2070,1,255,12.7,1,0,6.1,79,-71,0.0
20620,2071,1,255,12.7,1,0,6.1,117,-47,0.0
20630,2072,1,255,12.7,1,0,6.1,70,14,0.0
20640,2073,1,255,12.7,1,0,6.1,-3,-42,0.0
20650,2074,1,255,12.7,1,0,6.1,70,20,0.0
20660,2075,1,255,12.7,1,0,6.1,-9,-57,0.0
20670,2076,1,255,12.7,1,0,6.1,60,65,0.0
20680,2077,1,255,12.7,1,0,6.1,2,17,0.0
20690,2078,1,255,12.7,1,0,6.1,36,49,0.0
20700,2079,1,255,12.7,1,0,6.1,-37,113,0.0
20710,2080,1,255,12.7,1,0,6.1,-4,41,0.0
20720,2081,1,255,12.7,1,0,6.1,-63,105,0.0
20730,2082,1,255,12.7,1,0,6.1,-25,9,0.0
20740,2083,1,255,12.7,1,0,6.1,-75,8,0.0
20750,2084,1,255,12.7,1,0,6.1,-96,13,0.0
20760,2085,1,255,12.7,1,0,6.1,-98,12,0.0
20770,2086,1,255,12.7,1,0,6.1,-62,19,0.0
20780,2087,1,255,12.7,1,0,6.1,-51,53,0.0
20790,2088,1,255,12.7,1,0,6.1,4,-10,0.0
20800,2089,1,255,12.7,1,0,6.1,26,-20,0.0
20810,2090,1,255,12.7,1,0,6.1,-4,23,0.0
20820,2091,1,255,12.7,1,0,6.1,49,-33,0.0
20830,2092,1,255,12.7,1,0,6.1,8,-40,0.0
20840,2093,1,255,12.7,1,0,6.1,7,-105,0.0
20850,2094,1,255,12.7,1,0,6.1,33,-79,0.0
20860,2095,1,255,12.7,1,0,6.1,-11,-40,0.0
20870,2096,1,255,12.7,1,0,6.1,3,-73,0.0
20880,2097,1,255,12.7,1,0,6.1,13,-70,0.0
20890,2098,1,255,12.7,1,0,6.1,25,-34,0.0
20900,2099,1,255,12.7,1,0,6.1,36,-63,0.0
20910,2100,1,255,12.7,1,0,6.1,36,-5,0.0
20920,2101,1,255,12.7,1,0,6.1,38,-17,0.0
20930,2102,1,255,12.7,1,0,6.1,-19,-25,0.0
20940,2103,1,255,12.7,1,0,6.1,-66,9,0.0
20950,2104,1,255,12.7,1,0,6.1,-40,9,0.0
20960,2105,1,255,12.7,1,0,6.1,-40,4,0.0
20970,2106,1,255,12.7,1,0,6.1,-51,6,0.0
20980,2107,1,255,12.7,1,0,6.1,-72,21,0.0
20990,2108,1,255,12.7,1,0,6.1,-61,60,0.0
21000,2109,1,255,12.7,1,0,6.1,-22,39,0.0
21010,2110,1,255,12.7,1,0,6.1,3,53,0.0
21020,2111,1,255,12.7,1,0,6.1,-36,62,0.0
21030,2112,1,255,12.7,1,0,6.1,56,64,0.0
21040,2113,1,255,12.7,1,0,6.1,55,39,0.0
21050,2114,1,255,12.7,1,0,6.1,62,23,0.0
21060,2115,1,255,12.7,1,0,6.1,43,12,0.0
21070,2116,1,255,12.7,1,0,6.1,26,-36,0.0
21080,2117,1,255,12.7,1,0,6.1,70,-8,0.0
21090,2118,1,255,12.7,1,0,6.1,65,4,0.0
21100,2119,1,255,12.7,1,0,6.1,25,-59,0.0
21110,2120,1,255,12.7,1,0,6.1,62,0,0.0
21120,2121,1,255,12.7,1,0,6.1,-18,29,0.0
21130,2122,1,255,12.7,1,0,6.1,14,-23,0.0
21140,2123,1,255,12.7,1,0,6.1,60,60,0.0
21150,2124,1,255,12.7,1,0,6.1,-11,26,0.0
21160,2125,1,255,12.7,1,0,6.1,56,64,0.0
21170,2126,1,255,12.7,1,0,6.1,-46,26,0.0
21180,2127,1,255,12.7,1,0,6.1,-52,83,0.0
21190,2128,1,255,12.7,1,0,6.1,-37,29,0.0
21200,2129,1,255,12.7,1,0,6.1,-70,23,0.0
21210,2130,1,255,12.7,1,0,6.1,-77,24,0.0
21220,2131,1,255,12.7,1,0,6.1,-17,56,0.0
21230,2132,1,255,12.7,1,0,6.1,-26,-5,0.0
21240,2133,1,255,12.7,1,0,6.1,-59,64,0.0
21250,2134,1,255,12.7,1,0,6.1,-5,49,0.0
21260,2135,1,255,12.7,1,0,6.1,-14,3,0.0
21270,2136,1,255,12.7,1,0,6.1,-6,-45,0.0
21280,2137,1,255,12.7,1,0,6.1,52,-66,0.0
21290,2138,1,255,12.7,1,0,6.1,69,-58,0.0
21300,2139,1,255,12.7,1,0,6.1,7,-53,0.0
21310,2140,1,255,12.7,1,0,6.1,25,-52,0.0
21320,2141,1,255,12.7,1,0,6.1,-9,-105,0.0
21330,2142,1,255,12.7,1,0,6.1,2,-79,0.0
21340,2143,1,255,12.7,1,0,6.1,3,-80,0.0
21350,2144,1,255,12.7,1,0,6.1,0,-52,0.0
21360,2145,1,255,12.7,1,0,6.1,44,-60,0.0
21370,2146,1,255,12.7,1,0,6.1,49,39,0.0
21380,2147,1,255,12.7,1,0,6.1,4,-10,0.0
21390,2148,1,255,12.7,1,0,6.1,-6,2,0.0
21400,2149,1,255,12.7,1,0,6.1,21,66,0.0
21410,2150,1,255,12.7,1,0,6.1,-25,7,0.0
21420,2151,1,255,12.7,1,0,6.1,25,14,0.0
21430,2152,1,255,12.7,1,0,6.1,18,-3,0.0
21440,2153,1,255,12.7,1,0,6.1,-52,32,0.0
21450,2154,1,255,12.7,1,0,6.1,-65,29,0.0
21460,2155,1,255,12.7,1,0,6.1,14,62,0.0
21470,2156,1,255,12.7,1,0,6.1,-56,32,0.0
21480,2157,1,255,12.7,1,0,6.1,20,30,0.0
21490,2158,1,255,12.7,1,0,6.1,-36,32,0.0
21500,2159,1,255,12.7,1,0,6.1,36,42,0.0
21510,2160,1,255,12.7,1,0,6.1,38,46,0.0
21520,2161,1,255,12.7,1,0,6.1,52,21,0.0
21530,2162,1,255,12.7,1,0,6.1,45,-93,0.0
21540,2163,1,255,12.7,1,0,6.1,102,-9,0.0
21550,2164,1,255,12.7,1,0,6.1,21,0,0.0
21560,2165,1,255,12.7,1,0,6.1,17,-52,0.0
21570,2166,1,255,12.7,1,0,6.1,63,15,0.0
21580,2167,1,255,12.7,1,0,6.1,-5,-39,0.0
21590,2168,1,255,12.7,1,0,6.1,57,43,0.0
21600,2169,1,255,12.7,1,0,6.1,-17,41,0.0
21610,2170,1,255,12.7,1,0,6.1,7,40,0.0
21620,2171,1,255,12.7,1,0,6.1,43,41,0.0
21630,2172,1,255,12.7,1,0,6.1,-36,125,0.0
21640,2173,1,255,12.7,1,0,6.1,-52,53,0.0
21650,2174,1,255,12.7,1,0,6.1,-79,40,0.0
21660,2175,1,255,12.7,1,0,6.1,-74,9,0.0
21670,2176,1,255,12.7,1,0,6.1,-84,36,0.0
21680,2177,1,255,12.7,1,0,6.1,-91,46,0.0
21690,2178,1,255,12.7,1,0,6.1,-94,45,0.0
21700,2179,1,255,12.7,1,0,6.1,6,17,0.0
21710,2180,1,255,12.7,1,0,6.1,0,-19,0.0
21720,2181,1,255,12.7,1,0,6.1,-45,-13,0.0
21730,2182,1,255,12.7,1,0,6.1,41,-33,0.0
21740,2183,1,255,12.7,1,0,6.1,36,-61,0.0
21750,2184,1,255,12.7,1,0,6.1,-5,-29,0.0
21760,2185,1,255,12.7,1,0,6.1,70,-79,0.0
21770,2186,1,255,12.7,1,0,6.1,51,-36,0.0
21780,2187,1,255,12.7,1,0,6.1,7,-70,0.0
21790,2188,1,255,12.7,1,0,6.1,-8,-41,0.0
21800,2189,1,255,12.7,1,0,6.1,-11,-68,0.0
21810,2190,1,255,12.7,1,0,6.1,8,-46,0.0
21820,2191,1,255,12.7,1,0,6.1,20,-52,0.0
21830,2192,1,255,12.7,1,0,6.1,-56,-35,0.0
21840,2193,1,255,12.7,1,0,6.1,10,36,0.0
21850,2194,1,255,12.7,1,0,6.1,-26,-12,0.0
21860,2195,1,255,12.7,1,0,6.1,0,8,0.0
21870,2196,1,255,12.7,1,0,6.1,-38,-1,0.0
21880,2197,1,255,12.7,1,0,6.1,-35,-2,0.0
21890,2198,1,255,12.7,1,0,6.1,-49,17,0.0
21900,2199,1,255,12.7,1,0,6.1,-3,31,0.0
21910,2200,1,255,12.7,1,0,6.1,-55,25,0.0
21920,2201,1,255,12.7,1,0,6.1,-47,54,0.0
21930,2202,1,255,12.7,1,0,6.1,7,42,0.0
21940,2203,1,255,12.7,1,0,6.1,-52,65,0.0
21950,2204,1,255,12.7,1,0,6.1,-39,33,0.0
21960,2205,1,255,12.7,1,0,6.1,21,29,0.0
21970,2206,1,255,12.7,1,0,6.1,63,30,0.0
21980,2207,1,255,12.7,1,0,6.1,53,-39,0.0
21990,2208,1,255,12.7,1,0,6.1,32,-51,0.0
22000,2209,1,255,12.7,1,0,6.1,84,3,0.0
22010,2210,1,255,12.7,1,0,6.1,53,-4,0.0
22020,2211,1,255,12.7,1,0,6.1,35,10,0.0
22030,2212,1,255,12.7,1,0,6.1,8,-8,0.0
22040,2213,1,255,12.7,1,0,6.1,61,22,0.0
22050,2214,1,255,12.7,1,0,6.1,8,34,0.0
22060,2215,1,255,12.7,1,0,6.1,48,55,0.0
22070,2216,1,255,12.7,1,0,6.1,56,38,0.0
22080,2217,1,255,12.7,1,0,6.1,-17,33,0.0
22090,2218,1,255,12.7,1,0,6.1,42,46,0.0
22100,2219,1,255,12.7,1,0,6.1,-35,77,0.0
22110,2220,1,255,12.7,1,0,6.1,-61,43,0.0
22120,2221,1,255,12.7,1,0,6.1,-77,41,0.0
22130,2222,1,255,12.7,1,0,6.1,-69,21,0.0
22140,2223,1,255,12.7,1,0,6.1,-34,66,0.0
22150,2224,1,255,12.7,1,0,6.1,-45,10,0.0
22160,2225,1,255,12.7,1,0,6.1,-76,5,0.0
22170,2226,1,255,12.7,1,0,6.1,-41,67,0.0
22180,2227,1,255,12.7,1,0,6.1,19,-10,0.0
22190,2228,1,255,12.7,1,0,6.1,-41,50,0.0
22200,2229,1,255,12.7,1,0,6.1,46,-36,0.0
22210,2230,1,255,12.7,1,0,6.1,1,5,0.0
22220,2231,1,255,12.7,1,0,6.1,59,-47,0.0
22230,2232,1,255,12.7,1,0,6.1,-18,-4,0.0
22240,2233,1,255,12.7,1,0,6.1,52,-96,0.0
22250,2234,1,255,12.7,1,0,6.1,5,-73,0.0
22260,2235,1,255,12.7,1,0,6.1,-16,-85,0.0
22270,2236,1,255,12.7,1,0,6.1,20,-78,0.0
22280,2237,1,255,12.7,1,0,6.1,22,-62,0.0
22290,2238,1,255,12.7,1,0,6.1,52,-33,0.0
22300,2239,1,255,12.7,1,0,6.1,16,-26,0.0
22310,2240,1,255,12.7,1,0,6.1,-20,-23,0.0
22320,2241,1,255,12.7,1,0,6.1,-11,-4,0.0
22330,2242,1,255,12.7,1,0,6.1,-15,12,0.0
22340,2243,1,255,12.7,1,0,6.1,-28,6,0.0
22350,2244,1,255,12.7,1,0,6.1,-35,-1,0.0
22360,2245,1,255,12.7,1,0,6.1,14,19,0.0
22370,2246,1,255,12.7,1,0,6.1,8,-3,0.0
22380,2247,1,255,12.7,1,0,6.1,4,0,0.0
22390,2248,1,255,12.7,1,0,6.1,8,24,0.0
22400,2249,1,255,12.7,1,0,6.1,-1,54,0.0
22410,2250,1,255,12.7,1,0,6.1,5,62,0.0
22420,2251,1,255,12.7,1,0,6.1,1,59,0.0
22430,2252,1,255,12.7,1,0,6.1,8,59,0.0
22440,2253,1,255,12.7,1,0,6.1,47,46,0.0
22450,2254,1,255,12.7,1,0,6.1,61,25,0.0
22460,2255,1,255,12.7,1,0,6.1,46,7,0.0
22470,2256,1,255,12.7,1,0,6.1,91,-53,0.0
22480,2257,1,255,12.7,1,0,6.1,22,-77,0.0
22490,2258,1,255,12.7,1,0,6.1,18,-96,0.0
22500,2259,1,255,12.7,1,0,6.1,18,14,0.0
22510,2260,1,255,12.7,1,0,6.1,9,-49,0.0
22520,2261,1,255,12.7,1,0,6.1,4,34,0.0
22530,2262,1,255,12.7,1,0,6.1,66,54,0.0
22540,2263,1,255,12.7,1,0,6.1,-8,39,0.0
22550,2264,1,255,12.7,1,0,6.1,74,62,0.0
22560,2265,1,255,12.7,1,0,6.1,28,55,0.0
22570,2266,1,255,12.7,1,0,6.1,-28,49,0.0
22580,2267,1,255,12.7,1,0,6.1,-12,22,0.0
22590,2268,1,255,12.7,1,0,6.1,-59,39,0.0
22600,2269,1,255,12.7,1,0,6.1,-54,91,0.0
22610,2270,1,255,12.7,1,0,6.1,-21,19,0.0
22620,2271,1,255,12.7,1,0,6.1,-72,13,0.0
22630,2272,1,255,12.7,1,0,6.1,-54,52,0.0
22640,2273,1,255,12.7,1,0,6.1,16,-13,0.0
22650,2274,1,255,12.7,1,0,6.1,-48,46,0.0
22660,2275,1,255,12.7,1,0,6.1,28,-35,0.0
22670,2276,1,255,12.7,1,0,6.1,-15,-40,0.0
22680,2277,1,255,12.7,1,0,6.1,-18,-19,0.0
22690,2278,1,255,12.7,1,0,6.1,62,-73,0.0
22700,2279,1,255,12.7,1,0,6.1,4,-47,0.0
22710,2280,1,255,12.7,1,0,6.1,24,-105,0.0
22720,2281,1,255,12.7,1,0,6.1,3,-64,0.0
22730,2282,1,255,12.7,1,0,6.1,0,-84,0.0
22740,2283,1,255,12.7,1,0,6.1,4,-82,0.0
22750,2284,1,255,12.7,1,0,6.1,-5,-53,0.0
22760,2285,1,255,12.7,1,0,6.1,25,16,0.0
22770,2286,1,255,12.7,1,0,6.1,-4,-31,0.0
22780,2287,1,255,12.7,1,0,6.1,-13,-24,0.0
22790,2288,1,255,12.7,1,0,6.1,-26,-6,0.0
22800,2289,1,255,12.7,1,0,6.1,-8,0,0.0
22810,2290,1,255,12.7,1,0,6.1,-51,6,0.0
22820,2291,1,255,12.7,1,0,6.1,-28,-3,0.0
22830,2292,1,255,12.7,1,0,6.1,-51,-2,0.0
22840,2293,1,255,12.7,1,0,6.1,15,11,0.0
22850,2294,1,255,12.7,1,0,6.1,-51,35,0.0
22860,2295,1,255,12.7,1,0,6.1,-66,43,0.0
22870,2296,1,255,12.7,1,0,6.1,22,51,0.0
22880,2297,1,255,12.7,1,0,6.1,-1,34,0.0
22890,2298,1,255,12.7,1,0,6.1,2,40,0.0
22900,2299,1,255,12.7,1,0,6.1,24,67,0.0
22910,2300,1,255,12.7,1,0,6.1,56,-16,0.0
22920,2301,1,255,12.7,1,0,6.1,117,15,0.0
22930,2302,1,255,12.7,1,0,6.1,56,24,0.0
22940,2303,1,255,12.7,1,0,6.1,106,4,0.0
22950,2304,1,255,12.7,1,0,6.1,8,6,0.0
22960,2305,1,255,12.7,1,0,6.1,71,5,0.0
22970,2306,1,255,12.7,1,0,6.1,2,2,0.0
22980,2307,1,255,12.7,1,0,6.1,69,31,0.0
22990,2308,1,255,12.7,1,0,6.1,7,37,0.0
23000,2309,1,255,12.7,1,0,6.1,74,51,0.0
23010,2310,1,255,12.7,1,0,6.1,71,28,0.0
23020,2311,1,255,12.7,1,0,6.1,-27,52,0.0
23030,2312,1,255,12.7,1,0,6.1,8,53,0.0
23040,2313,1,255,12.7,1,0,6.1,-35,36,0.0
23050,2314,1,255,12.7,1,0,6.1,-49,43,0.0
23060,2315,1,255,12.7,1,0,6.1,-9,80,0.0
23070,2316,1,255,12.7,1,0,6.1,-64,13,0.0
23080,2317,1,255,12.7,1,0,6.1,-14,7,0.0
23090,2318,1,255,12.7,1,0,6.1,-68,-4,0.0
23100,2319,1,255,12.7,1,0,6.1,-78,-4,0.0
23110,2320,1,255,12.7,1,0,6.1,-85,-13,0.0
23120,2321,1,255,12.7,1,0,6.1,-51,54,0.0
23130,2322,1,255,12.7,1,0,6.1,39,-19,0.0
23140,2323,1,255,12.7,1,0,6.1,-24,48,0.0
23150,2324,1,255,12.7,1,0,6.1,34,-34,0.0
23160,2325,1,255,12.7,1,0,6.1,9,-25,0.0
23170,2326,1,255,12.7,1,0,6.1,60,-75,0.0
23180,2327,1,255,12.7,1,0,6.1,-6,-43,0.0
23190,2328,1,255,12.7,1,0,6.1,8,-70,0.0
23200,2329,1,255,12.7,1,0,6.1,3,-76,0.0
23210,2330,1,255,12.7,1,0,6.1,13,-2,0.0
23220,2331,1,255,12.7,1,0,6.1,-2,-22,0.0
23230,2332,1,255,12.7,1,0,6.1,23,4,0.0
23240,2333,1,255,12.7,1,0,6.1,-20,-25,0.0
23250,2334,1,255,12.7,1,0,6.1,-11,-11,0.0
23260,2335,1,255,12.7,1,0,6.1,60,49,0.0
23270,2336,1,255,12.7,1,0,6.1,-2,-3,0.0
23280,2337,1,255,12.7,1,0,6.1,-43,-4,0.0
23290,2338,1,255,12.7,1,0,6.1,-32,-3,0.0
23300,2339,1,255,12.7,1,0,6.1,-39,-1,0.0
23310,2340,1,255,12.7,1,0,6.1,-4,2,0.0
23320,2341,1,255,12.7,1,0,6.1,-84,54,0.0
23330,2342,1,255,12.7,1,0,6.1,16,36,0.0
23340,2343,1,255,12.7,1,0,6.1,8,50,0.0
23350,2344,1,255,12.7,1,0,6.1,-7,42,0.0
23360,2345,1,255,12.7,1,0,6.1,25,28,0.0
23370,2346,1,255,12.7,1,0,6.1,28,-62,0.0
23380,2347,1,255,12.7,1,0,6.1,87,33,0.0
23390,2348,1,255,12.7,1,0,6.1,40,18,0.0
23400,2349,1,255,12.7,1,0,6.1,30,-56,0.0
23410,2350,1,255,12.7,1,0,6.1,109,-77,0.0
23420,2351,1,255,12.7,1,0,6.1,64,2,0.0
23430,2352,1,255,12.7,1,0,6.1,26,-1,0.0
23440,2353,1,255,12.7,1,0,6.1,0,-67,0.0
23450,2354,1,255,12.7,1,0,6.1,55,28,0.0
23460,2355,1,255,12.7,1,0,6.1,-4,-18,0.0
23470,2356,1,255,12.7,1,0,6.1,54,75,0.0
23480,2357,1,255,12.7,1,0,6.1,-7,31,0.0
23490,2358,1,255,12.7,1,0,6.1,5,58,0.0
23500,2359,1,255,12.7,1,0,6.1,-13,70,0.0
23510,2360,1,255,12.7,1,0,6.1,-29,54,0.0
23520,2361,1,255,12.7,1,0,6.1,-52,18,0.0
23530,2362,1,255,12.7,1,0,6.1,-36,23,0.0
23540,2363,1,255,12.7,1,0,6.1,-72,78,0.0
23550,2364,1,255,12.7,1,0,6.1,-27,5,0.0
23560,2365,1,255,12.7,1,0,6.1,-99,69,0.0
23570,2366,1,255,12.7,1,0,6.1,15,3,0.0
23580,2367,1,255,12.7,1,0,6.1,-70,53,0.0
23590,2368,1,255,12.7,1,0,6.1,-67,-6,0.0
23600,2369,1,255,12.7,1,0,6.1,36,-50,0.0
23610,2370,1,255,12.7,1,0,6.1,-36,21,0.0
23620,2371,1,255,12.7,1,0,6.1,66,-73,0.0
23630,2372,1,255,12.7,1,0,6.1,0,4,0.0
23640,2373,1,255,12.7,1,0,6.1,2,-34,0.0
23650,2374,1,255,12.7,1,0,6.1,6,-40,0.0
23660,2375,1,255,12.7,1,0,6.1,-13,-78,0.0
23670,2376,1,255,12.7,1,0,6.1,-14,-76,0.0
23680,2377,1,255,12.7,1,0,6.1,62,-70,0.0
23690,2378,1,255,12.7,1,0,6.1,-27,-29,0.0
23700,2379,1,255,12.7,1,0,6.1,7,-28,0.0
23710,2380,1,255,12.7,1,0,6.1,4,-11,0.0
23720,2381,1,255,12.7,1,0,6.1,9,-18,0.0
23730,2382,1,255,12.7,1,0,6.1,-14,-4,0.0
23740,2383,1,255,12.7,1,0,6.1,-32,-1,0.0
23750,2384,1,255,12.7,1,0,6.1,-53,3,0.0
23760,2385,1,255,12.7,1,0,6.1,7,1,0.0
23770,2386,1,255,12.7,1,0,6.1,-64,-4,0.0
23780,2387,1,255,12.7,1,0,6.1,-64,39,0.0
23790,2388,1,255,12.7,1,0,6.1,-6,21,0.0
23800,2389,1,255,12.7,1,0,6.1,13,38,0.0
23810,2390,1,255,12.7,1,0,6.1,4,68,0.0
23820,2391,1,255,12.7,1,0,6.1,4,-32,0.0
23830,2392,1,255,12.7,1,0,6.1,28,-25,0.0
23840,2393,1,255,12.7,1,0,6.1,64,36,0.0
23850,2394,1,255,12.7,1,0,6.1,94,26,0.0
23860,2395,1,255,12.7,1,0,6.1,47,-42,0.0
23870,2396,1,255,12.7,1,0,6.1,95,6,0.0
23880,2397,1,255,12.7,1,0,6.1,34,-42,0.0
23890,2398,1,255,12.7,1,0,6.1,70,-6,0.0
23900,2399,1,255,12.7,1,0,6.1,1,0,0.0
23910,2400,1,255,12.7,1,0,6.1,-3,-62,0.0
23920,2401,1,255,12.7,1,0,6.1,47,32,0.0
23930,2402,1,255,12.7,1,0,6.1,-2,-1,0.0
23940,2403,1,255,12.7,1,0,6.1,47,49,0.0
23950,2404,1,255,12.7,1,0,6.1,3,49,0.0
23960,2405,1,255,12.7,1,0,6.1,-21,57,0.0
23970,2406,1,255,12.7,1,0,6.1,-28,43,0.0
23980,2407,1,255,12.7,1,0,6.1,-37,110,0.0
23990,2408,1,255,12.7,1,0,6.1,-7,61,0.0
24000,2409,1,255,12.7,1,0,6.1,-49,3,0.0
24010,2410,1,255,12.7,1,0,6.1,-88,11,0.0
24020,2411,1,255,12.7,1,0,6.1,-75,2,0.0
24030,2412,1,255,12.7,1,0,6.1,-76,55,0.0
24040,2413,1,255,12.7,1,0,6.1,-29,-6,0.0
24050,2414,1,255,12.7,1,0,6.1,-29,81,0.0
24060,2415,1,255,12.7,1,0,6.1,35,-31,0.0
24070,2416,1,255,12.7,1,0,6.1,-26,22,0.0
24080,2417,1,255,12.7,1,0,6.1,36,-53,0.0
24090,2418,1,255,12.7,1,0,6.1,-2,-37,0.0
24100,2419,1,255,12.7,1,0,6.1,15,-15,0.0
24110,2420,1,255,12.7,1,0,6.1,9,-58,0.0
24120,2421,1,255,12.7,1,0,6.1,8,-86,0.0
24130,2422,1,255,12.7,1,0,6.1,2,-63,0.0
24140,2423,1,255,12.7,1,0,6.1,39,-95,0.0
24150,2424,1,255,12.7,1,0,6.1,20,9,0.0
24160,2425,1,255,12.7,1,0,6.1,-12,-41,0.0
24170,2426,1,255,12.7,1,0,6.1,50,21,0.0
24180,2427,1,255,12.7,1,0,6.1,14,-11,0.0
24190,2428,1,255,12.7,1,0,6.1,49,51,0.0
24200,2429,1,255,12.7,1,0,6.1,-17,17,0.0
24210,2430,1,255,12.7,1,0,6.1,35,30,0.0
24220,2431,1,255,12.7,1,0,6.1,-18,22,0.0
24230,2432,1,255,12.7,1,0,6.1,-70,-10,0.0
24240,2433,1,255,12.7,1,0,6.1,-42,15,0.0
24250,2434,1,255,12.7,1,0,6.1,-7,8,0.0
24260,2435,1,255,12.7,1,0,6.1,-7,19,0.0
24270,2436,1,255,12.7,1,0,6.1,-2,85,0.0
24280,2437,1,255,12.7,1,0,6.1,-40,-8,0.0
24290,2438,1,255,12.7,1,0,6.1,62,-18,0.0
24300,2439,1,255,12.7,1,0,6.1,32,56,0.0
24310,2440,1,255,12.7,1,0,6.1,55,24,0.0
24320,2441,1,255,12.7,1,0,6.1,25,13,0.0
24330,2442,1,255,12.7,1,0,6.1,50,5,0.0
24340,2443,1,255,12.7,1,0,6.1,63,17,0.0
24350,2444,1,255,12.7,1,0,6.1,21,9,0.0
24360,2445,1,255,12.7,1,0,6.1,29,3,0.0
24370,2446,1,255,12.7,1,0,6.1,15,-2,0.0
24380,2447,1,255,12.7,1,0,6.1,16,16,0.0
24390,2448,1,255,12.7,1,0,6.1,0,-3,0.0
24400,2449,1,255,12.7,1,0,6.1,1,26,0.0
24410,2450,1,255,12.7,1,0,6.1,-6,25,0.0
24420,2451,1,255,12.7,1,0,6.1,6,45,0.0
24430,2452,1,255,12.7,1,0,6.1,-13,123,0.0
24440,2453,1,255,12.7,1,0,6.1,-62,60,0.0
24450,2454,1,255,12.7,1,0,6.1,-30,100,0.0
24460,2455,1,255,12.7,1,0,6.1,-40,31,0.0
24470,2456,1,255,12.7,1,0,6.1,-96,9,0.0
24480,2457,1,255,12.7,1,0,6.1,-55,49,0.0
24490,2458,1,255,12.7,1,0,6.1,-66,-4,0.0
24500,2459,1,255,12.7,1,0,6.1,33,-12,0.0
24510,2460,1,255,12.7,1,0,6.1,-46,-32,0.0
24520,2461,1,255,12.7,1,0,6.1,10,-3,0.0
24530,2462,1,255,12.7,1,0,6.1,-24,-32,0.0
24540,2463,1,255,12.7,1,0,6.1,35,-63,0.0
24550,2464,1,255,12.7,1,0,6.1,7,-42,0.0
24560,2465,1,255,12.7,1,0,6.1,-18,-14,0.0
24570,2466,1,255,12.7,1,0,6.1,-4,-29,0.0
24580,2467,1,255,12.7,1,0,6.1,-10,-30,0.0
24590,2468,1,255,12.7,1,0,6.1,58,-71,0.0
24600,2469,1,255,12.7,1,0,6.1,9,-65,0.0
24610,2470,1,255,12.7,1,0,6.1,45,-54,0.0
24620,2471,1,255,12.7,1,0,6.3,-46,-46,0.0
24630,2472,1,255,12.7,1,0,6.3,-1,-39,0.0
24640,2473,1,255,12.7,1,0,6.3,-4,-18,0.0
24650,2474,1,255,12.7,1,0,6.3,-33,-4,0.0
24660,2475,1,255,12.7,1,0,6.3,-8,15,0.0
24670,2476,1,255,12.7,1,0,6.3,-44,-11,0.0
24680,2477,1,255,12.7,1,0,6.3,25,20,0.0
24690,2478,1,255,12.7,1,0,6.3,-68,0,0.0
24700,2479,1,255,12.7,1,0,6.3,-75,-3,0.0
24710,2480,1,255,12.7,1,0,6.3,10,5,0.0
24720,2481,1,255,12.7,1,0,6.3,11,6,0.0
24730,2482,1,255,12.7,1,0,6.3,-2,19,0.0
24740,2483,1,255,12.7,1,0,6.3,18,-50,0.0
24750,2484,1,255,12.7,1,0,6.3,18,79,0.0
24760,2485,1,255,12.7,1,0,6.3,38,38,0.0
24770,2486,1,255,12.7,1,0,6.3,58,36,0.0
24780,2487,1,255,12.7,1,0,6.3,40,28,0.0
24790,2488,1,255,12.7,1,0,6.3,108,26,0.0
24800,2489,1,255,12.7,1,0,6.3,51,-13,0.0
24810,2490,1,255,12.7,1,0,6.3,103,-3,0.0
24820,2491,1,255,12.7,1,0,6.3,66,8,0.0
24830,2492,1,255,12.7,1,0,6.3,84,13,0.0
24840,2493,1,255,12.7,1,0,6.3,53,16,0.0
24850,2494,1,255,12.7,1,0,6.3,7,12,0.0
24860,2495,1,255,12.7,1,0,6.3,-14,20,0.0
24870,2496,1,255,12.7,1,0,6.3,-17,8,0.0
24880,2497,1,255,12.7,1,0,6.3,10,71,0.0
24890,2498,1,255,12.7,1,0,6.3,-24,35,0.0
24900,2499,1,255,12.7,1,0,6.3,-46,62,0.0
24910,2500,1,255,12.7,1,0,6.3,-12,30,0.0
24920,2501,1,255,12.7,1,0,6.3,-11,16,0.0
24930,2502,1,255,12.7,1,0,6.3,-40,34,0.0
24940,2503,1,255,12.7,1,0,6.3,-122,5,0.0
24950,2504,1,255,12.7,1,0,6.3,-20,2,0.0
24960,2505,1,255,12.7,1,0,6.3,-60,-19,0.0
24970,2506,1,255,12.7,1,0,6.3,-10,6,0.0
24980,2507,1,255,12.7,1,0,6.3,-25,-69,0.0
24990,2508,1,255,12.7,1,0,6.3,14,-7,0.0
25000,2509,1,255,12.7,1,0,6.3,-14,-41,0.0
25010,2510,1,255,12.7,1,0,6.3,-15,7,0.0
25020,2511,1,255,12.7,1,0,6.3,-21,-25,0.0
25030,2512,1,255,12.7,1,0,6.3,-4,-38,0.0
25040,2513,1,255,12.7,1,0,6.3,64,-46,0.0
25050,2514,1,255,12.7,1,0,6.3,4,-93,0.0
25060,2515,1,255,12.7,1,0,6.3,21,-76,0.0
25070,2516,1,255,12.7,1,0,6.3,-13,-45,0.0
25080,2517,1,255,12.7,1,0,6.3,-25,-84,0.0
25090,2518,1,255,12.7,1,0,6.3,33,-14,0.0
25100,2519,1,255,12.7,1,0,6.3,-19,-59,0.0
25110,2520,1,255,12.7,1,0,6.3,22,-20,0.0
25120,2521,1,255,12.7,1,0,6.3,79,35,0.0
25130,2522,1,255,12.7,1,0,6.3,-1,-12,0.0
25140,2523,1,255,12.7,1,0,6.3,49,52,0.0
25150,2524,1,255,12.7,1,0,6.3,-27,-1,0.0
25160,2525,1,255,12.7,1,0,6.3,24,9,0.0
25170,2526,1,255,12.7,1,0,6.3,17,10,0.0
25180,2527,1,255,12.7,1,0,6.3,2,4,0.0
25190,2528,1,255,12.7,1,0,6.3,2,-32,0.0
25200,2529,1,255,12.7,1,0,6.3,-26,-27,0.0
25210,2530,1,255,12.7,1,0,6.3,-53,53,0.0
25220,2531,1,255,12.7,1,0,6.3,-11,14,0.0
25230,2532,1,255,12.7,1,0,6.3,30,35,0.0
25240,2533,1,255,12.7,1,0,6.3,-25,26,0.0
25250,2534,1,255,12.7,1,0,6.3,59,46,0.0
25260,2535,1,255,12.7,1,0,6.3,48,30,0.0
25270,2536,1,255,12.7,1,0,6.3,108,19,0.0
25280,2537,1,255,12.7,1,0,6.3,59,-9,0.0
25290,2538,1,255,12.7,1,0,6.3,97,1,0.0
25300,2539,1,255,12.7,1,0,6.3,90,12,0.0
25310,2540,1,255,12.7,1,0,6.3,64,2,0.0
25320,2541,1,255,12.7,1,0,6.3,18,-2,0.0
25330,2542,1,255,12.7,1,0,6.3,13,-5,0.0
25340,2543,1,255,12.7,1,0,6.3,-16,1,0.0
25350,2544,1,255,12.7,1,0,6.3,-16,55,0.0
25360,2545,1,255,12.7,1,0,6.3,-11,30,0.0
25370,2546,1,255,12.7,1,0,6.3,54,56,0.0
25380,2547,1,255,12.7,1,0,6.3,-48,59,0.0
25390,2548,1,255,12.7,1,0,6.3,14,72,0.0
25400,2549,1,255,12.7,1,0,6.3,-61,26,0.0
25410,2550,1,255,12.7,1,0,6.3,-22,14,0.0
25420,2551,1,255,12.7,1,0,6.3,-47,29,0.0
25430,2552,1,255,12.7,1,0,6.3,-116,18,0.0
25440,2553,1,255,12.7,1,0,6.3,-32,-9,0.0
25450,2554,1,255,12.7,1,0,6.3,-12,-15,0.0
25460,2555,1,255,12.7,1,0,6.3,-88,-22,0.0
25470,2556,1,255,12.7,1,0,6.3,-42,-11,0.0
25480,2557,1,255,12.7,1,0,6.3,-55,-2,0.0
25490,2558,1,255,12.7,1,0,6.3,-10,-4,0.0
25500,2559,1,255,12.7,1,0,6.3,28,-48,0.0
25510,2560,1,255,12.7,1,0,6.3,48,-68,0.0
25520,2561,1,255,12.7,1,0,6.3,5,-69,0.0
25530,2562,1,255,12.7,1,0,6.3,65,-73,0.0
25540,2563,1,255,12.7,1,0,6.3,1,-25,0.0
25550,2564,1,255,12.7,1,0,6.3,-6,-82,0.0
25560,2565,1,255,12.7,1,0,6.3,3,-24,0.0
25570,2566,1,255,12.7,1,0,6.3,-10,-80,0.0
25580,2567,1,255,12.7,1,0,6.3,28,-16,0.0
25590,2568,1,255,12.7,1,0,6.3,26,-33,0.0
25600,2569,1,255,12.7,1,0,6.3,-24,-9,0.0
25610,2570,1,255,12.7,1,0,6.3,-17,-16,0.0
25620,2571,1,255,12.7,1,0,6.3,31,-13,0.0
25630,2572,1,255,12.7,1,0,6.3,47,-1,0.0
25640,2573,1,255,12.7,1,0,6.3,16,-8,0.0
25650,2574,1,255,12.7,1,0,6.3,5,14,0.0
25660,2575,1,255,12.7,1,0,6.3,-143,6,0.0
25670,2576,1,255,12.7,1,0,6.3,-56,45,0.0
25680,2577,1,255,12.7,1,0,6.3,3,43,0.0
25690,2578,1,255,12.7,1,0,6.3,-15,45,0.0
25700,2579,1,255,12.7,1,0,6.3,-31,63,0.0
25710,2580,1,255,12.7,1,0,6.3,42,-12,0.0
25720,2581,1,255,12.7,1,0,6.3,61,58,0.0
25730,2582,1,255,12.7,1,0,6.3,78,44,0.0
25740,2583,1,255,12.7,1,0,6.3,42,-39,0.0
25750,2584,1,255,12.7,1,0,6.3,123,14,0.0
25760,2585,1,255,12.7,1,0,6.3,70,-8,0.0
25770,2586,1,255,12.7,1,0,6.3,27,5,0.0
25780,2587,1,255,12.7,1,0,6.3,14,3,0.0
25790,2588,1,255,12.7,1,0,6.3,28,14,0.0
25800,2589,1,255,12.7,1,0,6.3,-8,-11,0.0
25810,2590,1,255,12.7,1,0,6.3,4,-49,0.0
25820,2591,1,255,12.7,1,0,6.3,66,58,0.0
25830,2592,1,255,12.7,1,0,6.3,-3,16,0.0
25840,2593,1,255,12.7,1,0,6.3,57,74,0.0
25850,2594,1,255,12.7,1,0,6.3,-13,107,0.0
25860,2595,1,255,12.7,1,0,6.3,0,66,0.0
25870,2596,1,255,12.7,1,0,6.3,-41,88,0.0
25880,2597,1,255,12.7,1,0,6.3,-69,34,0.0
25890,2598,1,255,12.7,1,0,6.3,-42,0,0.0
25900,2599,1,255,12.7,1,0,6.3,-41,66,0.0
25910,2600,1,255,12.7,1,0,6.3,-95,3,0.0
25920,2601,1,255,12.7,1,0,6.3,-28,-1,0.0
25930,2602,1,255,12.7,1,0,6.3,-49,-5,0.0
25940,2603,1,255,12.7,1,0,6.3,-25,4,0.0
25950,2604,1,255,12.7,1,0,6.3,-19,19,0.0
25960,2605,1,255,12.7,1,0,6.3,-25,-46,0.0
25970,2606,1,255,12.7,1,0,6.3,51,-40,0.0
25980,2607,1,255,12.7,1,0,6.3,-6,-13,0.0
25990,2608,1,255,12.7,1,0,6.3,54,-50,0.0
26000,2609,1,255,12.7,1,0,6.3,-1,-53,0.0
26010,2610,1,255,12.7,1,0,6.3,9,-82,0.0
26020,2611,1,255,12.7,1,0,6.3,-20,-64,0.0
26030,2612,1,255,12.7,1,0,6.3,-20,-92,0.0
26040,2613,1,255,12.7,1,0,6.3,5,-30,0.0
26050,2614,1,255,12.7,1,0,6.3,-16,-48,0.0
26060,2615,1,255,12.7,1,0,6.3,31,37,0.0
26070,2616,1,255,12.7,1,0,6.3,-14,-16,0.0
26080,2617,1,255,12.7,1,0,6.3,60,-22,0.0
26090,2618,1,255,12.7,1,0,6.3,64,7,0.0
26100,2619,1,255,12.7,1,0,6.3,39,14,0.0
26110,2620,1,255,12.7,1,0,6.3,-105,-7,0.0
26120,2621,1,255,12.7,1,0,6.3,-47,6,0.0
26130,2622,1,255,12.7,1,0,6.3,9,33,0.0
26140,2623,1,255,12.7,1,0,6.3,-48,33,0.0
26150,2624,1,255,12.7,1,0,6.3,8,49,0.0
26160,2625,1,255,12.7,1,0,6.3,-78,38,0.0
26170,2626,1,255,12.7,1,0,6.3,-55,57,0.0
26180,2627,1,255,12.7,1,0,6.3,28,47,0.0
26190,2628,1,255,12.7,1,0,6.3,17,27,0.0
26200,2629,1,255,12.7,1,0,6.3,58,45,0.0
26210,2630,1,255,12.7,1,0,6.3,101,28,0.0
26220,2631,1,255,12.7,1,0,6.3,88,26,0.0
26230,2632,1,255,12.7,1,0,6.3,73,11,0.0
26240,2633,1,255,12.7,1,0,6.3,40,-1,0.0
26250,2634,1,255,12.7,1,0,6.3,6,-9,0.0
26260,2635,1,255,12.7,1,0,6.3,16,17,0.0
26270,2636,1,255,12.7,1,0,6.3,-4,-1,0.0
26280,2637,1,255,12.7,1,0,6.3,0,4,0.0
26290,2638,1,255,12.7,1,0,6.3,10,22,0.0
26300,2639,1,255,12.7,1,0,6.3,-7,51,0.0
26310,2640,1,255,12.7,1,0,6.3,-20,43,0.0
26320,2641,1,255,12.7,1,0,6.3,2,38,0.0
26330,2642,1,255,12.7,1,0,6.3,-25,65,0.0
26340,2643,1,255,12.7,1,0,6.3,-40,51,0.0
26350,2644,1,255,12.7,1,0,6.3,-84,47,0.0
26360,2645,1,255,12.7,1,0,6.3,-39,11,0.0
26370,2646,1,255,12.7,1,0,6.3,-92,16,0.0
26380,2647,1,255,12.7,1,0,6.3,-101,-9,0.0
26390,2648,1,255,12.7,1,0,6.3,-81,6,0.0
26400,2649,1,255,12.7,1,0,6.3,-39,13,0.0
26410,2650,1,255,12.7,1,0,6.3,-47,14,0.0
26420,2651,1,255,12.7,1,0,6.3,-49,0,0.0
26430,2652,1,255,12.7,1,0,6.3,-31,-11,0.0
26440,2653,1,255,12.7,1,0,6.3,-19,-29,0.0
26450,2654,1,255,12.7,1,0,6.3,-22,-45,0.0
26460,2655,1,255,12.7,1,0,6.3,-13,-19,0.0
26470,2656,1,255,12.7,1,0,6.3,4,-69,0.0
26480,2657,1,255,12.7,1,0,6.3,69,-41,0.0
26490,2658,1,255,12.7,1,0,6.3,29,-38,0.0
26500,2659,1,255,12.7,1,0,6.3,-4,-10,0.0
26510,2660,1,255,12.7,1,0,6.3,44,-72,0.0
26520,2661,1,255,12.7,1,0,6.3,-5,4,0.0
26530,2662,1,255,12.7,1,0,6.3,5,19,0.0
26540,2663,1,255,12.7,1,0,6.3,51,-19,0.0
26550,2664,1,255,12.7,1,0,6.3,68,-10,0.0
26560,2665,1,255,12.7,1,0,6.3,16,-8,0.0
26570,2666,1,255,12.7,1,0,6.3,-46,94,0.0
26580,2667,1,255,12.7,1,0,6.3,12,11,0.0
26590,2668,1,255,12.7,1,0,6.3,-3,15,0.0
26600,2669,1,255,12.7,1,0,6.3,-48,19,0.0
26610,2670,1,255,12.7,1,0,6.3,-60,25,0.0
26620,2671,1,255,12.7,1,0,6.3,-3,47,0.0
26630,2672,1,255,12.7,1,0,6.3,-51,43,0.0
26640,2673,1,255,12.7,1,0,6.3,-69,52,0.0
26650,2674,1,255,12.7,1,0,6.3,47,62,0.0
26660,2675,1,255,12.7,1,0,6.3,-4,66,0.0
26670,2676,1,255,12.7,1,0,6.3,35,50,0.0
26680,2677,1,255,12.7,1,0,6.3,107,24,0.0
26690,2678,1,255,12.7,1,0,6.3,41,24,0.0
26700,2679,1,255,12.7,1,0,6.3,48,-10,0.0
26710,2680,1,255,12.7,1,0,6.3,35,7,0.0
26720,2681,1,255,12.7,1,0,6.3,78,-33,0.0
26730,2682,1,255,12.7,1,0,6.3,-16,-64,0.0
26740,2683,1,255,12.7,1,0,6.3,-1,19,0.0
26750,2684,1,255,12.7,1,0,6.3,67,9,0.0
26760,2685,1,255,12.7,1,0,6.3,-13,63,0.0
26770,2686,1,255,12.7,1,0,6.3,61,72,0.0
26780,2687,1,255,12.7,1,0,6.3,82,52,0.0
26790,2688,1,255,12.7,1,0,6.3,-45,38,0.0
26800,2689,1,255,12.7,1,0,6.3,13,44,0.0
26810,2690,1,255,12.7,1,0,6.3,-54,71,0.0
26820,2691,1,255,12.7,1,0,6.3,-67,84,0.0
26830,2692,1,255,12.7,1,0,6.3,-51,16,0.0
26840,2693,1,255,12.7,1,0,6.3,-102,17,0.0
26850,2694,1,255,12.7,1,0,6.3,-76,9,0.0
26860,2695,1,255,12.7,1,0,6.3,-51,9,0.0
26870,2696,1,255,12.7,1,0,6.3,-84,-11,0.0
26880,2697,1,255,12.7,1,0,6.3,-29,-3,0.0
26890,2698,1,255,12.7,1,0,6.3,5,-35,0.0
26900,2699,1,255,12.7,1,0,6.3,-16,42,0.0
26910,2700,1,255,12.7,1,0,6.3,-23,-46,0.0
26920,2701,1,255,12.7,1,0,6.3,53,-63,0.0
26930,2702,1,255,12.7,1,0,6.3,58,-43,0.0
26940,2703,1,255,12.7,1,0,6.3,5,-60,0.0
26950,2704,1,255,12.7,1,0,6.3,8,-59,0.0
26960,2705,1,255,12.7,1,0,6.3,21,-59,0.0
26970,2706,1,255,12.7,1,0,6.3,-3,-26,0.0
26980,2707,1,255,12.7,1,0,6.3,4,-28,0.0
26990,2708,1,255,12.7,1,0,6.3,27,39,0.0
27000,2709,1,255,12.7,1,0,6.3,61,-45,0.0
27010,2710,1,255,12.7,1,0,6.3,45,-16,0.0
27020,2711,1,255,12.7,1,0,6.3,37,-17,0.0
27030,2712,1,255,12.7,1,0,6.3,-9,77,0.0
27040,2713,1,255,12.7,1,0,6.3,-37,3,0.0
27050,2714,1,255,12.7,1,0,6.3,13,29,0.0
27060,2715,1,255,12.7,1,0,6.3,16,12,0.0
27070,2716,1,255,12.7,1,0,6.3,-42,18,0.0
27080,2717,1,255,12.7,1,0,6.3,9,47,0.0
27090,2718,1,255,12.7,1,0,6.3,-51,58,0.0
27100,2719,1,255,12.7,1,0,6.3,13,46,0.0
27110,2720,1,255,12.7,1,0,6.3,-48,45,0.0
27120,2721,1,255,12.7,1,0,6.3,-14,32,0.0
27130,2722,1,255,12.7,1,0,6.3,54,14,0.0
27140,2723,1,255,12.7,1,0,6.3,69,26,0.0
27150,2724,1,255,12.7,1,0,6.3,31,9,0.0
27160,2725,1,255,12.7,1,0,6.3,45,15,0.0
27170,2726,1,255,12.7,1,0,6.3,57,2,0.0
27180,2727,1,255,12.7,1,0,6.3,20,0,0.0
27190,2728,1,255,12.7,1,0,6.3,82,-54,0.0
27200,2729,1,255,12.7,1,0,6.3,18,-61,0.0
27210,2730,1,255,12.7,1,0,6.3,-30,-67,0.0
27220,2731,1,255,12.7,1,0,6.3,57,-4,0.0
27230,2732,1,255,12.7,1,0,6.3,-6,53,0.0
27240,2733,1,255,12.7,1,0,6.3,58,58,0.0
27250,2734,1,255,12.7,1,0,6.3,76,41,0.0
27260,2735,1,255,12.7,1,0,6.3,-55,30,0.0
27270,2736,1,255,12.7,1,0,6.3,-16,41,0.0
27280,2737,1,255,12.7,1,0,6.3,-13,3,0.0
27290,2738,1,255,12.7,1,0,6.3,-47,13,0.0
27300,2739,1,255,12.7,1,0,6.3,-73,14,0.0
27310,2740,1,255,12.7,1,0,6.3,-64,15,0.0
27320,2741,1,255,12.7,1,0,6.3,-80,-2,0.0
27330,2742,1,255,12.7,1,0,6.3,-80,59,0.0
27340,2743,1,255,12.7,1,0,6.3,-16,56,0.0
27350,2744,1,255,12.7,1,0,6.3,28,-11,0.0
27360,2745,1,255,12.7,1,0,6.3,-29,65,0.0
27370,2746,1,255,12.7,1,0,6.3,23,-45,0.0
27380,2747,1,255,12.7,1,0,6.3,-31,-15,0.0
27390,2748,1,255,12.7,1,0,6.3,66,-56,0.0
27400,2749,1,255,12.7,1,0,6.3,-13,-56,0.0
27410,2750,1,255,12.7,1,0,6.3,9,-111,0.0
27420,2751,1,255,12.7,1,0,6.3,-11,-90,0.0
27430,2752,1,255,12.7,1,0,6.3,2,-21,0.0
27440,2753,1,255,12.7,1,0,6.3,45,-85,0.0
27450,2754,1,255,12.7,1,0,6.3,21,-66,0.0
27460,2755,1,255,12.7,1,0,6.3,55,-9,0.0
27470,2756,1,255,12.7,1,0,6.3,70,-23,0.0
27480,2757,1,255,12.7,1,0,6.3,38,-9,0.0
27490,2758,1,255,12.7,1,0,6.3,-5,44,0.0
27500,2759,1,255,12.7,1,0,6.3,-43,-11,0.0
27510,2760,1,255,12.7,1,0,6.3,22,31,0.0
27520,2761,1,255,12.7,1,0,6.3,7,11,0.0
27530,2762,1,255,12.7,1,0,6.3,-55,22,0.0
27540,2763,1,255,12.7,1,0,6.3,-74,27,0.0
27550,2764,1,255,12.7,1,0,6.3,5,39,0.0
27560,2765,1,255,12.7,1,0,6.3,-47,76,0.0
27570,2766,1,255,12.7,1,0,6.3,11,74,0.0
27580,2767,1,255,12.7,1,0,6.3,-19,71,0.0
27590,2768,1,255,12.7,1,0,6.3,30,-10,0.0
27600,2769,1,255,12.7,1,0,6.3,53,33,0.0
27610,2770,1,255,12.7,1,0,6.3,42,14,0.0
27620,2771,1,255,12.7,1,0,6.3,61,8,0.0
27630,2772,1,255,12.7,1,0,6.3,64,8,0.0
27640,2773,1,255,12.7,1,0,6.3,85,5,0.0
27650,2774,1,255,12.7,1,0,6.3,67,1,0.0
27660,2775,1,255,12.7,1,0,6.3,26,-57,0.0
27670,2776,1,255,12.7,1,0,6.3,57,32,0.0
27680,2777,1,255,12.7,1,0,6.3,2,-67,0.0
27690,2778,1,255,12.7,1,0,6.3,-24,54,0.0
27700,2779,1,255,12.7,1,0,6.3,48,64,0.0
27710,2780,1,255,12.7,1,0,6.3,-30,30,0.0
27720,2781,1,255,12.7,1,0,6.3,28,28,0.0
27730,2782,1,255,12.7,1,0,6.3,-12,55,0.0
27740,2783,1,255,12.7,1,0,6.3,-39,13,0.0
27750,2784,1,255,12.7,1,0,6.3,-34,19,0.0
27760,2785,1,255,12.7,1,0,6.3,-27,20,0.0
27770,2786,1,255,12.7,1,0,6.3,-88,-2,0.0
27780,2787,1,255,12.7,1,0,6.3,-49,17,0.0
27790,2788,1,255,12.7,1,0,6.3,-98,-8,0.0
27800,2789,1,255,12.7,1,0,6.3,-53,53,0.0
27810,2790,1,255,12.7,1,0,6.3,21,-20,0.0
27820,2791,1,255,12.7,1,0,6.3,-12,23,0.0
27830,2792,1,255,12.7,1,0,6.3,15,-58,0.0
27840,2793,1,255,12.7,1,0,6.3,-14,-65,0.0
27850,2794,1,255,12.7,1,0,6.3,60,-59,0.0
27860,2795,1,255,12.7,1,0,6.3,-1,-80,0.0
27870,2796,1,255,12.7,1,0,6.3,18,-75,0.0
27880,2797,1,255,12.7,1,0,6.3,12,-93,0.0
27890,2798,1,255,12.7,1,0,6.3,-23,-91,0.0
27900,2799,1,255,12.7,1,0,6.3,57,-77,0.0
27910,2800,1,255,12.7,1,0,6.3,13,-25,0.0
27920,2801,1,255,12.7,1,0,5.9,42,-21,0.0
27930,2802,1,255,12.7,1,0,5.9,79,-15,0.0
27940,2803,1,255,12.7,1,0,5.9,-45,-14,0.0
27950,2804,1,255,12.7,1,0,5.9,49,10,0.0
27960,2805,1,255,12.7,1,0,5.9,-80,7,0.0
27970,2806,1,255,12.7,1,0,5.9,-34,-18,0.0
27980,2807,1,255,12.7,1,0,5.9,6,11,0.0
27990,2808,1,255,12.7,1,0,5.9,-2,17,0.0
28000,2809,1,255,12.7,1,0,5.9,-57,36,0.0
28010,2810,1,255,12.7,1,0,5.9,-60,22,0.0
28020,2811,1,255,12.7,1,0,5.9,7,28,0.0
28030,2812,1,255,12.7,1,0,5.9,-61,70,0.0
28040,2813,1,255,12.7,1,0,5.9,56,70,0.0
28050,2814,1,255,12.7,1,0,5.9,29,53,0.0
28060,2815,1,255,12.7,1,0,5.9,4,37,0.0
28070,2816,1,255,12.7,1,0,5.9,37,15,0.0
28080,2817,1,255,12.7,1,0,5.9,38,4,0.0
28090,2818,1,255,12.7,1,0,5.9,51,-45,0.0
28100,2819,1,255,12.7,1,0,5.9,46,15,0.0
28110,2820,1,255,12.7,1,0,5.9,65,-3,0.0
28120,2821,1,255,12.7,1,0,5.9,14,-50,0.0
28130,2822,1,255,12.7,1,0,5.9,72,-7,0.0
28140,2823,1,255,12.7,1,0,5.9,-6,25,0.0
28150,2824,1,255,12.7,1,0,5.9,-2,-22,0.0
28160,2825,1,255,12.7,1,0,5.9,55,68,0.0
28170,2826,1,255,12.7,1,0,5.9,-16,54,0.0
28180,2827,1,255,12.7,1,0,5.9,37,57,0.0
28190,2828,1,255,12.7,1,0,5.9,-52,99,0.0
28200,2829,1,255,12.7,1,0,5.9,-28,25,0.0
28210,2830,1,255,12.7,1,0,5.9,-3,14,0.0
28220,2831,1,255,12.7,1,0,5.9,-37,18,0.0
28230,2832,1,255,12.7,1,0,5.9,-46,16,0.0
28240,2833,1,255,12.7,1,0,5.9,-103,-14,0.0
28250,2834,1,255,12.7,1,0,5.9,-46,6,0.0
28260,2835,1,255,12.7,1,0,5.9,-89,8,0.0
28270,2836,1,255,12.7,1,0,5.9,-45,-19,0.0
28280,2837,1,255,12.7,1,0,5.9,-59,3,0.0
28290,2838,1,255,12.7,1,0,5.9,-2,-16,0.0
28300,2839,1,255,12.7,1,0,5.9,-33,4,0.0
28310,2840,1,255,12.7,1,0,5.9,-8,-39,0.0
28320,2841,1,255,12.7,1,0,5.9,-7,-50,0.0
28330,2842,1,255,12.7,1,0,5.9,3,-79,0.0
28340,2843,1,255,12.7,1,0,5.9,4,-109,0.0
28350,2844,1,255,12.7,1,0,5.9,10,-103,0.0
28360,2845,1,255,12.7,1,0,5.9,50,-86,0.0
28370,2846,1,255,12.7,1,0,5.9,13,-60,0.0
28380,2847,1,255,12.7,1,0,5.9,8,-26,0.0
28390,2848,1,255,12.7,1,0,5.9,39,-28,0.0
28400,2849,1,255,12.7,1,0,5.9,63,-41,0.0
28410,2850,1,255,12.7,1,0,5.9,53,-17,0.0
28420,2851,1,255,12.7,1,0,5.9,-15,-10,0.0
28430,2852,1,255,12.7,1,0,5.9,51,66,0.0
28440,2853,1,255,12.7,1,0,5.9,-16,5,0.0
28450,2854,1,255,12.7,1,0,5.9,19,-10,0.0
28460,2855,1,255,12.7,1,0,5.9,7,9,0.0
28470,2856,1,255,12.7,1,0,5.9,-35,2,0.0
28480,2857,1,255,12.7,1,0,5.9,-8,37,0.0
28490,2858,1,255,12.7,1,0,5.9,-37,34,0.0
28500,2859,1,255,12.7,1,0,5.9,13,51,0.0
28510,2860,1,255,12.7,1,0,5.9,-60,33,0.0
28520,2861,1,255,12.7,1,0,5.9,-25,45,0.0
28530,2862,1,255,12.7,1,0,5.9,28,64,0.0
28540,2863,1,255,12.7,1,0,5.9,46,47,0.0
28550,2864,1,255,12.7,1,0,5.9,54,13,0.0
28560,2865,1,255,12.7,1,0,5.9,77,12,0.0
28570,2866,1,255,12.7,1,0,5.9,110,-61,0.0
28580,2867,1,255,12.7,1,0,5.9,25,-12,0.0
28590,2868,1,255,12.7,1,0,5.9,71,11,0.0
28600,2869,1,255,12.7,1,0,5.9,58,3,0.0
28610,2870,1,255,12.7,1,0,5.9,5,40,0.0
28620,2871,1,255,12.7,1,0,5.9,60,44,0.0
28630,2872,1,255,12.7,1,0,5.9,58,68,0.0
28640,2873,1,255,12.7,1,0,5.9,-13,37,0.0
28650,2874,1,255,12.7,1,0,5.9,38,39,0.0
28660,2875,1,255,12.7,1,0,5.9,-47,61,0.0
28670,2876,1,255,12.7,1,0,5.9,-23,55,0.0
28680,2877,1,255,12.7,1,0,5.9,-72,46,0.0
28690,2878,1,255,12.7,1,0,5.9,-76,22,0.0
28700,2879,1,255,12.7,1,0,5.9,-36,-1,0.0
28710,2880,1,255,12.7,1,0,5.9,-84,7,0.0
28720,2881,1,255,12.7,1,0,5.9,-73,-66,0.0
28730,2882,1,255,12.7,1,0,5.9,-89,52,0.0
28740,2883,1,255,12.7,1,0,5.9,-42,-46,0.0
28750,2884,1,255,12.7,1,0,5.9,5,0,0.0
28760,2885,1,255,12.7,1,0,5.9,-31,-30,0.0
28770,2886,1,255,12.7,1,0,5.9,43,-59,0.0
28780,2887,1,255,12.7,1,0,5.9,-23,-66,0.0
28790,2888,1,255,12.7,1,0,5.9,41,-57,0.0
28800,2889,1,255,12.7,1,0,5.9,7,-45,0.0
28810,2890,1,255,12.7,1,0,5.9,-1,0,0.0
28820,2891,1,255,12.7,1,0,5.9,22,-69,0.0
28830,2892,1,255,12.7,1,0,5.9,-2,-50,0.0
28840,2893,1,255,12.7,1,0,5.9,10,-89,0.0
28850,2894,1,255,12.7,1,0,5.9,9,-65,0.0
28860,2895,1,255,12.7,1,0,5.9,21,-30,0.0
28870,2896,1,255,12.7,1,0,5.9,-7,44,0.0
28880,2897,1,255,12.7,1,0,5.9,-25,-11,0.0
28890,2898,1,255,12.7,1,0,5.9,-4,6,0.0
28900,2899,1,255,12.7,1,0,5.9,5,-5,0.0
28910,2900,1,255,12.7,1,0,5.9,-37,-1,0.0
28920,2901,1,255,12.7,1,0,5.9,-35,2,0.0
28930,2902,1,255,12.7,1,0,5.9,0,26,0.0
28940,2903,1,255,12.7,1,0,5.9,0,33,0.0
28950,2904,1,255,12.7,1,0,5.9,-62,58,0.0
28960,2905,1,255,12.7,1,0,5.9,4,32,0.0
28970,2906,1,255,12.7,1,0,5.9,-33,58,0.0
28980,2907,1,255,12.7,1,0,5.9,-61,38,0.0
28990,2908,1,255,12.7,1,0,5.9,28,46,0.0
29000,2909,1,255,12.7,1,0,5.9,59,53,0.0
29010,2910,1,255,12.7,1,0,5.9,25,29,0.0
29020,2911,1,255,12.7,1,0,5.9,19,-29,0.0
29030,2912,1,255,12.7,1,0,5.9,84,4,0.0
29040,2913,1,255,12.7,1,0,5.9,28,-57,0.0
29050,2914,1,255,12.7,1,0,5.9,85,14,0.0
29060,2915,1,255,12.7,1,0,5.9,23,10,0.0
29070,2916,1,255,12.7,1,0,5.9,3,-74,0.0
29080,2917,1,255,12.7,1,0,5.9,54,33,0.0
29090,2918,1,255,12.7,1,0,5.9,2,26,0.0
29100,2919,1,255,12.7,1,0,5.9,4,47,0.0
29110,2920,1,255,12.7,1,0,5.9,69,68,0.0
29120,2921,1,255,12.7,1,0,5.9,-33,46,0.0
29130,2922,1,255,12.7,1,0,5.9,15,33,0.0
29140,2923,1,255,12.7,1,0,5.9,-58,49,0.0
29150,2924,1,255,12.7,1,0,5.9,-28,7,0.0
29160,2925,1,255,12.7,1,0,5.9,-45,20,0.0
29170,2926,1,255,12.7,1,0,5.9,-103,-36,0.0
29180,2927,1,255,12.7,1,0,5.9,-46,2,0.0
29190,2928,1,255,12.7,1,0,5.9,14,5,0.0
29200,2929,1,255,12.7,1,0,5.9,-91,68,0.0
29210,2930,1,255,12.7,1,0,5.9,37,-23,0.0
29220,2931,1,255,12.7,1,0,5.9,-32,-30,0.0
29230,2932,1,255,12.7,1,0,5.9,53,-26,0.0
29240,2933,1,255,12.7,1,0,5.9,49,-69,0.0
29250,2934,1,255,12.7,1,0,5.9,8,-89,0.0
29260,2935,1,255,12.7,1,0,5.9,76,-39,0.0
29270,2936,1,255,12.7,1,0,5.9,1,-100,0.0
29280,2937,1,255,12.7,1,0,5.9,15,-63,0.0
29290,2938,1,255,12.7,1,0,5.9,-11,-116,0.0
29300,2939,1,255,12.7,1,0,5.9,10,-60,0.0
29310,2940,1,255,12.7,1,0,5.9,6,-35,0.0
29320,2941,1,255,12.7,1,0,5.9,-13,2,0.0
29330,2942,1,255,12.7,1,0,5.9,5,47,0.0
29340,2943,1,255,12.7,1,0,5.9,-2,-14,0.0
29350,2944,1,255,12.7,1,0,5.9,25,61,0.0
29360,2945,1,255,12.7,1,0,5.9,-13,11,0.0
29370,2946,1,255,12.7,1,0,5.9,25,80,0.0
29380,2947,1,255,12.7,1,0,5.9,-37,-12,0.0
29390,2948,1,255,12.7,1,0,5.9,-59,4,0.0
29400,2949,1,255,12.7,1,0,5.9,-51,14,0.0
29410,2950,1,255,12.7,1,0,5.9,3,59,0.0
29420,2951,1,255,12.7,1,0,5.9,-11,30,0.0
29430,2952,1,255,12.7,1,0,5.9,-51,39,0.0
29440,2953,1,255,12.7,1,0,5.9,1,27,0.0
29450,2954,1,255,12.7,1,0,5.9,22,41,0.0
29460,2955,1,255,12.7,1,0,5.9,44,59,0.0
29470,2956,1,255,12.7,1,0,5.9,73,36,0.0
29480,2957,1,255,12.7,1,0,5.9,30,-40,0.0
29490,2958,1,255,12.7,1,0,5.9,75,-42,0.0
29500,2959,1,255,12.7,1,0,5.9,121,4,0.0
29510,2960,1,255,12.7,1,0,5.9,17,-55,0.0
29520,2961,1,255,12.7,1,0,5.9,79,1,0.0
29530,2962,1,255,12.7,1,0,5.9,6,13,0.0
29540,2963,1,255,12.7,1,0,5.9,-7,-60,0.0
29550,2964,1,255,12.7,1,0,5.9,58,32,0.0
29560,2965,1,255,12.7,1,0,5.9,11,-12,0.0
29570,2966,1,255,12.7,1,0,5.9,-4,27,0.0
29580,2967,1,255,12.7,1,0,5.9,93,60,0.0
29590,2968,1,255,12.7,1,0,5.9,10,69,0.0
29600,2969,1,255,12.7,1,0,5.9,-31,54,0.0
29610,2970,1,255,12.7,1,0,5.9,-32,44,0.0
29620,2971,1,255,12.7,1,0,5.9,-46,24,0.0
29630,2972,1,255,12.7,1,0,5.9,-90,72,0.0
29640,2973,1,255,12.7,1,0,5.9,-26,10,0.0
29650,2974,1,255,12.7,1,0,5.9,-67,10,0.0
29660,2975,1,255,12.7,1,0,5.9,-69,51,0.0
29670,2976,1,255,12.7,1,0,5.9,-42,2,0.0
29680,2977,1,255,12.7,1,0,5.9,-64,57,0.0
29690,2978,1,255,12.7,1,0,5.9,24,-26,0.0
29700,2979,1,255,12.7,1,0,5.9,-18,-32,0.0
29710,2980,1,255,12.7,1,0,5.9,-23,-9,0.0
29720,2981,1,255,12.7,1,0,5.9,48,-32,0.0
29730,2982,1,255,12.7,1,0,5.9,18,-61,0.0
29740,2983,1,255,12.7,1,0,5.9,26,-121,0.0
29750,2984,1,255,12.7,1,0,5.9,4,-81,0.0
29760,2985,1,255,12.7,1,0,5.9,-4,-109,0.0
29770,2986,1,255,12.7,1,0,5.9,5,-43,0.0
29780,2987,1,255,12.7,1,0,5.9,52,-40,0.0
29790,2988,1,255,12.7,1,0,5.9,-14,35,0.0
29800,2989,1,255,12.7,1,0,5.9,9,-17,0.0
29810,2990,1,255,12.7,1,0,5.9,-36,-11,0.0
29820,2991,1,255,12.7,1,0,5.9,-29,6,0.0
29830,2992,1,255,12.7,1,0,5.9,-22,-1,0.0
29840,2993,1,255,12.7,1,0,5.9,-44,-8,0.0
29850,2994,1,255,12.7,1,0,5.9,27,-6,0.0
29860,2995,1,255,12.7,1,0,5.9,-57,10,0.0
29870,2996,1,255,12.7,1,0,5.9,0,21,0.0
29880,2997,1,255,12.7,1,0,5.9,-36,0,0.0
29890,2998,1,255,12.7,1,0,5.9,10,48,0.0
29900,2999,1,255,12.7,1,0,5.9,1,38,0.0
29910,3000,1,255,12.7,1,0,5.9,11,72,0.0
29920,3001,1,255,12.7,1,0,5.9,1,29,0.0
29930,3002,1,255,12.7,1,0,5.9,15,-21,0.0
29940,3003,1,255,12.7,1,0,5.9,31,21,0.0
29950,3004,1,255,12.7,1,0,5.9,71,13,0.0
29960,3005,1,255,12.7,1,0,5.9,97,6,0.0
29970,3006,1,255,12.7,1,0,5.9,31,2,0.0
29980,3007,1,255,12.7,1,0,5.9,66,-3,0.0
29990,3008,1,255,12.7,1,0,5.9,14,17,0.0
30000,3009,1,255,12.7,1,0,5.9,47,-4,0.0
30010,3010,1,255,12.7,1,0,5.9,60,36,0.0
30020,3011,1,255,12.7,1,0,5.9,-8,48,0.0
30030,3012,1,255,12.7,1,0,5.9,71,72,0.0
30040,3013,1,255,12.7,1,0,5.9,57,56,0.0
30050,3014,1,255,12.7,1,0,5.9,3,49,0.0
30060,3015,1,255,12.7,1,0,5.9,-6,66,0.0
30070,3016,1,255,12.7,1,0,5.9,-45,30,0.0
30080,3017,1,255,12.7,1,0,5.9,-14,100,0.0
30090,3018,1,255,12.7,1,0,5.9,-39,10,0.0
30100,3019,1,255,12.7,1,0,5.9,-107,-34,0.0
30110,3020,1,255,12.7,1,0,5.9,-48,2,0.0
30120,3021,1,255,12.7,1,0,5.9,-77,1,0.0
30130,3022,1,255,12.7,1,0,5.9,-7,-4,0.0
30140,3023,1,255,12.7,1,0,5.9,0,-1,0.0
30150,3024,1,255,12.7,1,0,5.9,-47,-30,0.0
30160,3025,1,255,12.7,1,0,5.9,35,-36,0.0
30170,3026,1,255,12.7,1,0,5.9,-20,-47,0.0
30180,3027,1,255,12.7,1,0,5.9,2,-54,0.0
30190,3028,1,255,12.7,1,0,5.9,-8,-3,0.0
30200,3029,1,255,12.7,1,0,5.9,5,-73,0.0
30210,3030,1,255,12.7,1,0,5.9,-7,-51,0.0
30220,3031,1,255,12.7,1,0,5.9,-5,-87,0.0
30230,3032,1,255,12.7,1,0,5.9,-14,-81,0.0
30240,3033,1,255,12.7,1,0,5.9,15,-50,0.0
30250,3034,1,255,12.7,1,0,5.9,36,-55,0.0
30260,3035,1,255,12.7,1,0,5.9,19,-15,0.0
30270,3036,1,255,12.7,1,0,5.9,40,-39,0.0
30280,3037,1,255,12.7,1,0,5.9,20,-18,0.0
30290,3038,1,255,12.7,1,0,5.9,42,9,0.0
30300,3039,1,255,12.7,1,0,5.9,15,1,0.0
30310,3040,1,255,12.7,1,0,5.9,-48,-3,0.0
30320,3041,1,255,12.7,1,0,5.9,-54,11,0.0
30330,3042,1,255,12.7,1,0,5.9,-23,23,0.0
30340,3043,1,255,12.7,1,0,5.9,-28,-5,0.0
30350,3044,1,255,12.7,1,0,5.9,2,45,0.0
30360,3045,1,255,12.7,1,0,5.9,-6,12,0.0
30370,3046,1,255,12.7,1,0,5.9,-11,42,0.0
30380,3047,1,255,12.7,1,0,5.9,10,35,0.0
30390,3048,1,255,12.7,1,0,5.9,34,64,0.0
30400,3049,1,255,12.7,1,0,5.9,83,-25,0.0
30410,3050,1,255,12.7,1,0,5.9,32,9,0.0
30420,3051,1,255,12.7,1,0,5.9,79,13,0.0
30430,3052,1,255,12.7,1,0,5.9,113,10,0.0
30440,3053,1,255,12.7,1,0,5.9,26,8,0.0
30450,3054,1,255,12.7,1,0,5.9,88,-3,0.0
30460,3055,1,255,12.7,1,0,5.9,2,11,0.0
30470,3056,1,255,12.7,1,0,5.9,63,17,0.0
30480,3057,1,255,12.7,1,0,5.9,62,55,0.0
30490,3058,1,255,12.7,1,0,5.9,-4,33,0.0
30500,3059,1,255,12.7,1,0,5.9,58,44,0.0
30510,3060,1,255,12.7,1,0,5.9,46,40,0.0
30520,3061,1,255,12.7,1,0,5.9,-12,65,0.0
30530,3062,1,255,12.7,1,0,5.9,-35,66,0.0
30540,3063,1,255,12.7,1,0,5.9,-38,22,0.0
30550,3064,1,255,12.7,1,0,5.9,-95,28,0.0
30560,3065,1,255,12.7,1,0,5.9,-84,11,0.0
30570,3066,1,255,12.7,1,0,5.9,-36,-4,0.0
30580,3067,1,255,12.7,1,0,5.9,-86,-40,0.0
30590,3068,1,255,12.7,1,0,5.9,-19,-5,0.0
30600,3069,1,255,12.7,1,0,5.9,-37,0,0.0
30610,3070,1,255,12.7,1,0,5.9,12,-22,0.0
30620,3071,1,255,12.7,1,0,5.9,42,-35,0.0
30630,3072,1,255,12.7,1,0,5.9,22,-63,0.0
30640,3073,1,255,12.7,1,0,5.9,-1,-58,0.0
30650,3074,1,255,12.7,1,0,5.9,74,-68,0.0
30660,3075,1,255,12.7,1,0,5.9,25,-34,0.0
30670,3076,1,255,12.7,1,0,5.9,3,-69,0.0
30680,3077,1,255,12.7,1,0,5.9,-6,-85,0.0
30690,3078,1,255,12.7,1,0,5.9,0,-63,0.0
30700,3079,1,255,12.7,1,0,5.9,13,-48,0.0
30710,3080,1,255,12.7,1,0,5.9,35,-61,0.0
30720,3081,1,255,12.7,1,0,5.9,-17,24,0.0
30730,3082,1,255,12.7,1,0,5.9,-74,-15,0.0
30740,3083,1,255,12.7,1,0,5.9,-34,-7,0.0
30750,3084,1,255,12.7,1,0,5.9,11,7,0.0
30760,3085,1,255,12.7,1,0,5.9,-34,9,0.0
30770,3086,1,255,12.7,1,0,5.9,-39,-2,0.0
30780,3087,1,255,12.7,1,0,5.9,-59,25,0.0
30790,3088,1,255,12.7,1,0,5.9,-46,14,0.0
30800,3089,1,255,12.7,1,0,5.9,4,51,0.0
30810,3090,1,255,12.7,1,0,5.9,-22,4,0.0
30820,3091,1,255,12.7,1,0,5.9,-35,37,0.0
30830,3092,1,255,12.7,1,0,5.9,0,49,0.0
30840,3093,1,255,12.7,1,0,5.9,-2,74,0.0
30850,3094,1,255,12.7,1,0,5.9,34,60,0.0
30860,3095,1,255,12.7,1,0,5.9,36,-23,0.0
30870,3096,1,255,12.7,1,0,5.9,118,30,0.0
30880,3097,1,255,12.7,1,0,5.9,73,17,0.0
30890,3098,1,255,12.7,1,0,5.9,119,3,0.0
30900,3099,1,255,12.7,1,0,5.9,31,8,0.0
30910,3100,1,255,12.7,1,0,5.9,68,1,0.0
30920,3101,1,255,12.7,1,0,5.9,69,4,0.0
30930,3102,1,255,12.7,1,0,5.9,14,20,0.0
30940,3103,1,255,12.7,1,0,5.9,54,40,0.0
30950,3104,1,255,12.7,1,0,5.9,-3,40,0.0
30960,3105,1,255,12.7,1,0,5.9,63,66,0.0
30970,3106,1,255,12.7,1,0,5.9,56,62,0.0
30980,3107,1,255,12.7,1,0,5.9,4,54,0.0
30990,3108,1,255,12.7,1,0,5.9,-36,58,0.0
31000,3109,1,255,12.7,1,0,5.9,-43,20,0.0
31010,3110,1,255,12.7,1,0,5.9,-52,31,0.0
31020,3111,1,255,12.7,1,0,5.9,-44,79,0.0
31030,3112,1,255,12.7,1,0,5.9,-119,20,0.0
31040,3113,1,255,12.7,1,0,5.9,-43,3,0.0
31050,3114,1,255,12.7,1,0,5.9,-82,1,0.0
31060,3115,1,255,12.7,1,0,5.9,-77,52,0.0
31070,3116,1,255,12.7,1,0,5.9,23,-13,0.0
31080,3117,1,255,12.7,1,0,5.9,37,-29,0.0
31090,3118,1,255,12.7,1,0,5.9,-14,28,0.0
31100,3119,1,255,12.7,1,0,5.9,52,-36,0.0
31110,3120,1,255,12.7,1,0,5.9,3,-33,0.0
31120,3121,1,255,12.7,1,0,5.9,76,-69,0.0
31130,3122,1,255,12.7,1,0,5.9,2,-76,0.0
31140,3123,1,255,12.7,1,0,5.9,8,-93,0.0
31150,3124,1,255,12.7,1,0,5.9,-1,-83,0.0
31160,3125,1,255,12.7,1,0,5.9,-32,-52,0.0
31170,3126,1,255,12.7,1,0,5.9,6,-63,0.0
31180,3127,1,255,12.7,1,0,5.9,32,-48,0.0
31190,3128,1,255,12.7,1,0,5.9,11,-21,0.0
31200,3129,1,255,12.7,1,0,5.9,-5,-8,0.0
31210,3130,1,255,12.7,1,0,5.9,-13,-8,0.0
31220,3131,1,255,12.7,1,0,5.9,43,67,0.0
31230,3132,1,255,12.7,1,0,6.1,-39,17,0.0
31240,3133,1,255,12.7,1,0,6.1,18,21,0.0
31250,3134,1,255,12.7,1,0,6.1,-51,19,0.0
31260,3135,1,255,12.7,1,0,6.1,-77,2,0.0
31270,3136,1,255,12.7,1,0,6.1,-62,46,0.0
31280,3137,1,255,12.7,1,0,6.1,4,38,0.0
31290,3138,1,255,12.7,1,0,6.1,-6,51,0.0
31300,3139,1,255,12.7,1,0,6.1,2,62,0.0
31310,3140,1,255,12.7,1,0,6.1,49,0,0.0
31320,3141,1,255,12.7,1,0,6.1,38,0,0.0
31330,3142,1,255,12.7,1,0,6.1,15,14,0.0
31340,3143,1,255,12.7,1,0,6.1,107,9,0.0
31350,3144,1,255,12.7,1,0,6.1,37,13,0.0
31360,3145,1,255,12.7,1,0,6.1,104,11,0.0
31370,3146,1,255,12.7,1,0,6.1,56,-10,0.0
31380,3147,1,255,12.7,1,0,6.1,14,13,0.0
31390,3148,1,255,12.7,1,0,6.1,42,9,0.0
31400,3149,1,255,12.7,1,0,6.1,53,10,0.0
31410,3150,1,255,12.7,1,0,6.1,5,65,0.0
31420,3151,1,255,12.7,1,0,6.1,63,38,0.0
31430,3152,1,255,12.7,1,0,6.1,56,42,0.0
31440,3153,1,255,12.7,1,0,6.1,-16,57,0.0
31450,3154,1,255,12.7,1,0,6.1,7,76,0.0
31460,3155,1,255,12.7,1,0,6.1,-29,53,0.0
31470,3156,1,255,12.7,1,0,6.1,-70,111,0.0
31480,3157,1,255,12.7,1,0,6.1,-102,19,0.0
31490,3158,1,255,12.7,1,0,6.1,-124,83,0.0
31500,3159,1,255,12.7,1,0,6.1,-24,11,0.0
31510,3160,1,255,12.7,1,0,6.1,-75,-3,0.0
31520,3161,1,255,12.7,1,0,6.1,-75,61,0.0
31530,3162,1,255,12.7,1,0,6.1,12,9,0.0
31540,3163,1,255,12.7,1,0,6.1,-62,-22,0.0
31550,3164,1,255,12.7,1,0,6.1,-29,45,0.0
31560,3165,1,255,12.7,1,0,6.1,41,-48,0.0
31570,3166,1,255,12.7,1,0,6.1,-1,-57,0.0
31580,3167,1,255,12.7,1,0,6.1,61,-51,0.0
31590,3168,1,255,12.7,1,0,6.1,7,-25,0.0
31600,3169,1,255,12.7,1,0,6.1,2,-52,0.0
31610,3170,1,255,12.7,1,0,6.1,4,-86,0.0
31620,3171,1,255,12.7,1,0,6.1,4,-75,0.0
31630,3172,1,255,12.7,1,0,6.1,62,-49,0.0
31640,3173,1,255,12.7,1,0,6.1,0,-50,0.0
31650,3174,1,255,12.7,1,0,6.1,20,-25,0.0
31660,3175,1,255,12.7,1,0,6.1,6,-19,0.0
31670,3176,1,255,12.7,1,0,6.1,-7,-20,0.0
31680,3177,1,255,12.7,1,0,6.1,-23,1,0.0
31690,3178,1,255,12.7,1,0,6.1,-26,7,0.0
31700,3179,1,255,12.7,1,0,6.1,-37,-11,0.0
31710,3180,1,255,12.7,1,0,6.1,9,71,0.0
31720,3181,1,255,12.7,1,0,6.1,-49,38,0.0
31730,3182,1,255,12.7,1,0,6.1,-7,37,0.0
31740,3183,1,255,12.7,1,0,6.1,8,24,0.0
31750,3184,1,255,12.7,1,0,6.1,-5,42,0.0
31760,3185,1,255,12.7,1,0,6.1,12,70,0.0
31770,3186,1,255,12.7,1,0,6.1,45,-24,0.0
31780,3187,1,255,12.7,1,0,6.1,59,74,0.0
31790,3188,1,255,12.7,1,0,6.1,48,50,0.0
