TIMESTAMP_MS,COUNTER,DEVICE_ID,PULSE_BPM,SPO2_PCT,SPO2_STATUS,PLETH,BATTERY_PCT,RED_ADC,IR_ADC,PERFUSION_INDEX
0,9,1,79,99.9,0,15028,96.3,199927,107577,3.2
10,10,1,79,99.9,0,14404,96.3,200006,107651,3.2
20,11,1,79,99.9,0,13805,96.3,200028,107695,3.2
30,12,1,79,99.9,0,13218,96.3,200043,107701,3.2
40,13,1,79,99.9,0,12645,96.3,200018,107662,3.2
50,14,1,79,99.9,0,12110,96.3,199939,107529,3.2
60,15,1,79,99.9,0,11600,96.3,199770,107273,3.2
70,16,1,79,99.9,0,11154,96.3,199524,106992,3.2
80,17,1,79,99.9,0,10824,96.3,199227,106624,3.2
90,18,1,79,99.9,0,10659,96.3,198923,106204,3.2
100,19,1,79,99.9,0,10725,96.3,198532,105697,3.2
110,20,1,79,99.9,0,11110,96.3,198161,105241,3.2
120,21,1,79,99.9,0,11905,96.3,197812,104840,3.2
130,22,1,79,99.9,0,13160,96.3,197551,104535,3.2
140,23,1,79,99.9,0,14941,96.3,197315,104294,3.2
150,24,1,79,99.9,0,17274,96.3,197144,104094,3.2
160,25,1,79,99.9,0,20135,96.3,197000,103941,3.2
170,26,1,79,99.9,0,23490,96.3,196862,103800,3.2
180,27,1,79,99.9,0,27251,96.3,196724,103689,3.2
190,28,1,79,99.9,0,31321,96.3,196636,103580,3.2
200,29,1,79,99.9,0,35587,96.3,196571,103489,3.2
210,30,1,79,99.9,0,39931,96.3,196478,103407,3.2
220,31,1,79,99.9,0,44208,96.3,196423,103353,3.2
230,32,1,79,99.9,0,48296,96.3,196379,103339,3.2
240,33,1,79,99.9,0,52089,96.3,196367,103327,3.2
250,34,1,79,99.9,0,55505,96.3,196395,103329,3.2
260,35,1,79,99.9,0,58464,96.3,196359,103374,3.2
270,36,1,79,99.9,0,60925,96.3,196407,103426,3.2
280,37,1,79,99.9,0,62258,96.3,196462,103509,3.2
290,38,1,79,99.9,0,62258,96.3,196540,103612,3.2
300,39,1,79,99.9,0,62258,96.3,196638,103715,3.2
310,40,1,79,99.9,0,62258,96.3,196714,103816,3.2
320,41,1,79,99.9,0,62130,96.3,196765,103896,3.2
330,42,1,79,99.9,8,61735,96.3,196768,103932,3.2
340,43,1,79,99.9,0,61016,96.3,196828,104023,3.2
350,44,1,79,99.9,0,60020,96.3,196962,104115,3.2
360,45,1,79,99.9,0,58804,96.3,197006,104190,3.2
370,46,1,79,99.9,0,57415,96.3,197054,104238,3.3
380,47,1,79,99.9,0,55923,96.3,197136,104314,3.3
390,48,1,79,99.9,0,54374,96.3,197141,104351,3.3
400,49,1,79,99.9,0,52802,96.3,197217,104420,3.3
410,50,1,79,99.9,0,51242,96.3,197342,104499,3.3
420,51,1,79,99.9,0,49728,96.3,197353,104545,3.3
430,52,1,79,99.9,0,48283,96.3,197487,104621,3.3
440,53,1,79,99.9,0,46930,96.3,197513,104694,3.3
450,54,1,79,99.9,0,45658,96.3,197618,104793,3.3
460,55,1,79,99.9,0,44489,96.3,197658,104853,3.3
470,56,1,79,99.9,0,43412,96.3,197728,104910,3.3
480,57,1,79,99.9,0,42415,96.3,197780,105002,3.3
490,58,1,79,99.9,0,41476,96.3,197833,105051,3.3
500,59,1,79,99.9,0,40592,96.3,197876,105145,3.3
510,60,1,79,99.9,0,39743,96.3,197991,105220,3.3
520,61,1,79,99.9,0,38926,96.3,197986,105272,3.3
530,62,1,79,99.9,0,38119,96.3,198103,105371,3.3
540,63,1,79,99.9,0,37309,96.3,198138,105443,3.3
550,64,1,79,99.9,0,36497,96.3,198230,105524,3.3
560,65,1,79,99.9,0,35671,96.3,198248,105607,3.3
570,66,1,79,99.9,0,34830,96.3,198315,105668,3.3
580,67,1,79,99.9,0,33985,96.3,198370,105769,3.3
590,68,1,79,99.9,0,33102,96.3,198444,105831,3.3
600,69,1,79,99.9,0,32203,96.3,198510,105912,3.3
610,70,1,79,99.9,0,31277,96.3,198595,106004,3.3
620,71,1,79,99.9,0,30347,96.3,198634,106072,3.3
630,72,1,79,99.9,0,29427,96.3,198725,106158,3.3
640,73,1,79,99.9,0,28491,96.3,198755,106233,3.3
650,74,1,79,99.9,0,27552,96.3,198799,106271,3.3
660,75,1,79,99.9,0,26623,96.3,198844,106347,3.3
670,76,1,79,99.9,0,25691,96.3,198961,106440,3.3
680,77,1,79,99.9,0,24793,96.3,199013,106496,3.3
690,78,1,79,99.9,0,23918,96.3,199030,106562,3.3
700,79,1,79,99.9,0,23053,96.3,199063,106597,3.3
710,80,1,79,99.9,0,22223,96.3,199119,106682,3.3
720,81,1,79,99.9,0,21428,96.3,199173,106748,3.3
730,82,1,79,99.9,0,20668,96.3,199241,106810,3.3
740,83,1,79,99.9,0,19944,96.3,199277,106856,3.3
750,84,1,79,99.9,0,19256,96.3,199307,106922,3.3
760,85,1,79,99.9,0,18579,96.3,199374,107011,3.3
770,86,1,79,99.9,0,17951,96.3,199428,107062,3.3
780,87,1,79,99.9,0,17358,96.3,199497,107109,3.3
790,88,1,79,99.9,0,16778,96.3,199490,107111,3.3
800,89,1,79,99.9,0,16234,96.3,199476,107056,3.3
810,90,1,79,99.9,0,15727,96.3,199292,106867,3.3
820,91,1,79,99.9,0,15269,96.3,199143,106633,3.3
830,92,1,79,99.9,0,14897,96.3,198944,106351,3.3
840,93,1,79,99.9,0,14636,96.3,198655,105979,3.3
850,94,1,79,99.9,0,14549,96.3,198267,105517,3.3
860,95,1,79,99.9,0,14720,96.3,197896,105003,3.3
870,96,1,79,99.9,0,15214,96.3,197512,104578,3.3
880,97,1,79,99.9,0,16104,96.3,197309,104276,3.3
890,98,1,79,99.9,0,17441,96.3,197025,104012,3.3
900,99,1,79,99.9,0,19276,96.3,196884,103823,3.3
910,100,1,79,99.9,0,21623,96.3,196745,103644,3.3
920,101,1,79,99.9,0,24460,96.3,196671,103531,3.3
930,102,1,79,99.9,0,27728,96.3,196562,103408,3.3
940,103,1,79,99.9,0,31355,96.3,196482,103309,3.3
950,104,1,79,99.9,0,35221,96.3,196445,103247,3.3
960,105,1,79,99.9,0,39213,96.3,196390,103177,3.3
970,106,1,79,99.9,0,43202,96.3,196347,103155,3.3
980,107,1,79,99.9,0,47061,96.3,196311,103127,3.3
990,108,1,79,99.9,0,50671,96.3,196313,103108,3.3
1000,109,1,79,99.9,0,53956,96.3,196299,103124,3.3
1010,110,1,79,99.9,0,56849,96.3,196324,103160,3.3
1020,111,1,79,99.9,0,59261,96.3,196397,103198,3.3
1030,112,1,79,99.9,0,61192,96.3,196441,103294,3.3
1040,113,1,79,99.9,0,62258,96.3,196536,103393,3.3
1050,114,1,79,99.9,0,62258,96.3,196620,103503,3.3
1060,115,1,79,99.9,0,62258,96.3,196733,103614,3.3
1070,116,1,79,99.9,0,62258,96.3,196827,103738,3.3
1080,117,1,79,99.9,8,61878,96.3,196926,103848,3.3
1090,118,1,79,99.9,0,61142,96.3,196994,103925,3.3
1100,119,1,79,99.9,0,60122,96.3,197051,104011,3.3
1110,120,1,79,99.9,0,58855,96.3,197128,104114,3.3
1120,121,1,79,99.9,0,57387,96.3,197181,104158,3.3
1130,122,1,79,99.9,0,55777,96.3,197247,104237,3.3
1140,123,1,79,99.9,0,54097,96.3,197277,104295,3.3
1150,124,1,79,99.9,0,52370,96.3,197321,104350,3.3
1160,125,1,79,99.9,0,50642,96.3,197363,104381,3.3
1170,126,1,79,99.9,0,48950,96.3,197404,104443,3.3
1180,127,1,79,99.9,0,47328,96.3,197457,104527,3.3
1190,128,1,79,99.9,0,45812,96.3,197472,104585,3.3
1200,129,1,79,99.9,0,44414,96.3,197592,104632,3.3
1210,130,1,79,99.9,0,43109,96.3,197611,104706,3.3
1220,131,1,79,99.9,0,41933,96.3,197669,104771,3.3
1230,132,1,79,99.9,0,40876,96.3,197728,104831,3.3
1240,133,1,79,99.9,0,39924,96.3,197751,104916,3.3
1250,134,1,79,99.9,0,39042,96.3,197851,104984,3.3
1260,135,1,79,99.9,0,38242,96.3,197903,105072,3.3
1270,136,1,79,99.9,0,37476,96.3,197978,105148,3.3
1280,137,1,79,99.9,0,36769,96.3,198019,105229,3.3
1290,138,1,79,99.9,0,36071,96.3,198095,105316,3.3
1300,139,1,79,99.9,0,35371,96.3,198187,105389,3.3
1310,140,1,79,99.9,0,34669,96.3,198235,105481,3.3
1320,141,1,79,99.9,0,33928,96.3,198289,105545,3.3
1330,142,1,79,99.9,0,33171,96.3,198323,105616,3.3
1340,143,1,79,99.9,0,32362,96.3,198382,105717,3.3
1350,144,1,79,99.9,0,31526,96.3,198462,105776,3.3
1360,145,1,79,99.9,0,30662,96.3,198512,105864,3.3
1370,146,1,78,99.9,0,29758,96.3,198598,105953,3.3
1380,147,1,78,99.9,0,28826,96.3,198637,106030,3.3
1390,148,1,78,99.9,0,27879,96.3,198737,106114,3.3
1400,149,1,78,99.9,0,26929,96.3,198828,106183,3.3
1410,150,1,78,99.9,0,25965,96.3,198854,106248,3.3
1420,151,1,78,99.9,0,25010,96.3,198922,106322,3.3
1430,152,1,78,99.9,0,24065,96.3,198961,106375,3.3
1440,153,1,78,99.9,0,23131,96.3,199023,106453,3.3
1450,154,1,78,99.9,0,22220,96.3,199083,106528,3.3
1460,155,1,78,99.9,0,21319,96.3,199176,106609,3.3
1470,156,1,78,99.9,0,20455,96.3,199192,106665,3.3
1480,157,1,78,99.9,0,19627,96.3,199288,106742,3.3
1490,158,1,78,99.9,0,18836,96.3,199311,106820,3.3
1500,159,1,78,99.9,0,18082,96.7,199325,106872,3.3
1510,160,1,78,99.9,0,17351,96.7,199403,106936,3.3
1520,161,1,78,99.9,0,16658,96.7,199464,107012,3.3
1530,162,1,78,99.9,0,15990,96.7,199507,107082,3.3
1540,163,1,78,99.9,0,15346,96.7,199596,107166,3.3
1550,164,1,78,99.9,0,14740,96.7,199617,107246,3.3
1560,165,1,78,99.9,0,14147,96.7,199684,107307,3.3
1570,166,1,78,99.9,0,13565,96.7,199737,107369,3.3
1580,167,1,78,99.9,0,12997,96.7,199787,107396,3.3
1590,168,1,78,99.9,0,12441,96.7,199729,107359,3.3
1600,169,1,78,99.9,0,11885,96.7,199622,107218,3.3
1610,170,1,78,99.9,0,11380,96.7,199439,106977,3.3
1620,171,1,78,99.9,0,10913,96.7,199238,106672,3.3
1630,172,1,78,99.9,0,10561,96.7,198982,106344,3.3
1640,173,1,78,99.9,0,10360,96.7,198666,105933,3.3
1650,174,1,78,99.9,0,10387,96.7,198336,105496,3.3
1660,175,1,78,99.9,0,10706,96.7,197979,105018,3.3
1670,176,1,78,99.9,0,11431,96.7,197623,104643,3.3
1680,177,1,78,99.9,0,12612,96.7,197423,104376,3.3
1690,178,1,78,99.9,0,14300,96.7,197194,104108,3.3
1700,179,1,78,99.9,0,16511,96.7,197091,103961,3.3
1710,180,1,78,99.9,0,19232,96.7,196985,103821,3.3
1720,181,1,78,99.9,0,22428,96.7,196883,103703,3.3
1730,182,1,78,99.9,0,26013,96.7,196808,103582,3.3
1740,183,1,78,99.9,0,29889,96.7,196742,103510,3.3
1750,184,1,78,99.9,0,33946,96.7,196731,103449,3.3
1760,185,1,78,99.9,0,38055,96.7,196700,103384,3.3
1770,186,1,78,99.9,0,42099,96.7,196632,103322,3.3
1780,187,1,78,99.9,0,45932,96.7,196661,103322,3.3
1790,188,1,78,99.9,0,49474,96.7,196614,103315,3.3
1800,189,1,78,99.9,0,52630,96.7,196634,103335,3.3
1810,190,1,78,99.9,0,55336,96.7,196720,103386,3.3
1820,191,1,78,99.9,0,57550,96.7,196729,103444,3.3
1830,192,1,78,99.9,0,59259,96.7,196826,103534,3.3
1840,193,1,78,99.9,0,60463,96.7,196902,103642,3.3
1850,194,1,78,99.9,0,61162,96.7,196977,103773,3.3
1860,195,1,78,99.9,0,61396,96.7,197072,103872,3.3
1870,196,1,78,99.9,0,61205,96.7,197167,103982,3.3
1880,197,1,78,99.9,8,60614,96.7,197262,104079,3.3
1890,198,1,78,99.9,0,59675,96.7,197326,104143,3.3
1900,199,1,78,99.9,0,58442,96.7,197408,104215,3.3
1910,200,1,78,99.9,0,56978,96.7,197443,104295,3.3
1920,201,1,78,99.9,0,55347,96.7,197504,104343,3.3
1930,202,1,78,99.9,0,53600,96.7,197506,104367,3.3
1940,203,1,78,99.9,0,51790,96.7,197529,104403,3.3
1950,204,1,78,99.9,0,49966,96.7,197570,104477,3.3
1960,205,1,78,99.9,0,48193,96.7,197611,104506,3.3
1970,206,1,78,99.9,0,46496,96.7,197675,104549,3.3
1980,207,1,78,99.9,0,44914,96.7,197680,104623,3.3
1990,208,1,78,99.9,0,43446,96.7,197726,104688,3.3
2000,209,1,78,99.9,0,42119,96.7,197766,104724,3.3
2010,210,1,78,99.9,0,40919,96.7,197798,104781,3.3
2020,211,1,78,99.9,0,39873,96.7,197847,104835,3.3
2030,212,1,78,99.9,0,38942,96.7,197877,104893,3.3
2040,213,1,78,99.9,0,38100,96.7,197902,104984,3.3
2050,214,1,78,99.9,0,37361,96.7,197969,105041,3.3
2060,215,1,78,99.9,0,36672,96.7,198026,105100,3.3
2070,216,1,78,99.9,0,36033,96.7,198091,105160,3.3
2080,217,1,78,99.9,0,35419,96.7,198121,105225,3.3
2090,218,1,78,99.9,0,34816,96.7,198178,105298,3.3
2100,219,1,78,99.9,0,34197,96.7,198219,105361,3.3
2110,220,1,78,99.9,0,33563,96.7,198259,105413,3.3
2120,221,1,78,99.9,0,32873,96.7,198281,105492,3.3
2130,222,1,78,99.9,0,32154,96.7,198334,105543,3.3
2140,223,1,78,99.9,0,31419,96.7,198398,105614,3.3
2150,224,1,78,99.9,0,30628,96.7,198466,105708,3.3
2160,225,1,78,99.9,0,29820,96.7,198488,105750,3.3
2170,226,1,78,99.9,0,28969,96.7,198518,105813,3.3
2180,227,1,78,99.9,0,28103,96.7,198595,105902,3.3
2190,228,1,78,99.9,0,27234,96.7,198666,105948,3.3
2200,229,1,78,99.9,0,26348,96.7,198685,106044,3.3
2210,230,1,78,99.9,0,25474,96.7,198747,106083,3.3
2220,231,1,78,99.9,0,24598,96.7,198806,106134,3.3
2230,232,1,78,99.9,0,23720,96.7,198840,106200,3.3
2240,233,1,78,99.9,0,22867,96.7,198902,106242,3.3
2250,234,1,78,99.9,0,22026,96.7,198934,106314,3.3
2260,235,1,78,99.9,0,21225,96.7,198976,106383,3.3
2270,236,1,78,99.9,0,20449,96.7,199008,106442,3.3
2280,237,1,78,99.9,0,19713,96.7,199118,106514,3.3
2290,238,1,78,99.9,0,19003,96.7,199119,106546,3.3
2300,239,1,78,99.9,0,18320,96.7,199170,106611,3.3
2310,240,1,78,99.9,0,17677,96.7,199261,106681,3.3
2320,241,1,78,99.9,0,17061,96.7,199277,106723,3.3
2330,242,1,78,99.9,0,16444,96.7,199358,106794,3.3
2340,243,1,78,99.9,0,15855,96.7,199305,106821,3.3
2350,244,1,78,99.9,0,15306,96.7,199354,106810,3.3
2360,245,1,78,99.9,0,14757,96.7,199302,106702,3.3
2370,246,1,78,99.9,0,14235,96.7,199145,106515,3.6
2380,247,1,78,99.9,0,13782,96.7,198917,106268,3.6
2390,248,1,78,99.9,0,13411,96.7,198738,105980,3.6
2400,249,1,78,99.9,0,13178,96.7,198429,105594,3.6
2410,250,1,78,99.9,0,13151,96.7,198075,105135,3.6
2420,251,1,78,99.9,0,13400,96.7,197671,104631,3.6
2430,252,1,78,99.9,0,14007,96.7,197325,104238,3.6
2440,253,1,78,99.9,0,15055,96.7,197052,103909,3.6
2450,254,1,78,99.9,0,16615,96.7,196856,103684,3.6
2460,255,1,78,99.9,0,18729,96.7,196745,103499,3.6
2470,256,1,78,99.9,0,21385,96.7,196559,103332,3.6
2480,257,1,78,99.9,0,24572,96.7,196459,103205,3.6
2490,258,1,78,99.9,0,28225,96.7,196385,103119,3.6
2500,259,1,78,99.9,0,32224,96.7,196293,103028,3.6
2510,260,1,78,99.9,0,36475,96.7,196285,102972,3.6
2520,261,1,78,99.9,0,40836,96.7,196192,102903,3.6
2530,262,1,78,99.9,0,45165,96.7,196191,102853,3.6
2540,263,1,78,99.9,0,49332,96.7,196126,102861,3.6
2550,264,1,78,99.9,0,53222,96.7,196136,102821,3.6
2560,265,1,78,99.9,0,56732,96.7,196137,102838,3.6
2570,266,1,78,99.9,0,59777,96.7,196181,102878,3.6
2580,267,1,78,99.9,0,62258,96.7,196215,102933,3.6
2590,268,1,78,99.9,0,62258,96.7,196267,103017,3.6
2600,269,1,78,99.9,0,62258,96.7,196358,103098,3.6
2610,270,1,78,99.9,0,62258,96.7,196446,103230,3.6
2620,271,1,78,99.9,0,62258,96.7,196530,103345,3.6
2630,272,1,78,99.9,0,62198,96.7,196621,103456,3.6
2640,273,1,78,99.9,8,61765,96.7,196763,103550,3.6
2650,274,1,78,99.9,0,60996,96.7,196787,103618,3.6
2660,275,1,78,99.9,0,59952,96.7,196851,103723,3.6
2670,276,1,78,99.9,0,58657,96.7,196932,103799,3.6
2680,277,1,78,99.9,0,57195,96.7,196960,103866,3.6
2690,278,1,78,99.9,0,55602,96.7,197000,103911,3.6
2700,279,1,78,99.9,0,53937,96.7,197052,103945,3.6
2710,280,1,78,99.9,0,52249,96.7,197082,104011,3.6
2720,281,1,78,99.9,0,50585,96.7,197131,104092,3.6
2730,282,1,78,99.9,0,48968,96.7,197181,104138,3.6
2740,283,1,78,99.9,0,47411,96.7,197204,104178,3.6
2750,284,1,78,99.9,0,45972,96.7,197267,104242,3.6
2760,285,1,78,99.9,0,44642,96.7,197309,104314,3.6
2770,286,1,78,99.9,0,43442,96.7,197365,104365,3.6
2780,287,1,78,99.9,0,42362,96.7,197407,104421,3.6
2790,288,1,78,99.9,0,41389,96.7,197475,104502,3.6
2800,289,1,78,99.9,0,40511,96.7,197560,104594,3.6
2810,290,1,78,99.9,0,39704,96.7,197581,104642,3.6
2820,291,1,78,99.9,0,38957,96.7,197648,104740,3.6
2830,292,1,78,99.9,0,38256,96.7,197738,104820,3.6
2840,293,1,78,99.9,0,37578,96.7,197783,104890,3.6
2850,294,1,78,99.9,0,36898,96.7,197839,104979,3.6
2860,295,1,78,99.9,0,36215,96.7,197903,105057,3.6
2870,296,1,78,99.9,0,35518,96.7,197952,105111,3.6
2880,297,1,78,99.9,0,34769,96.7,198040,105208,3.6
2890,298,1,78,99.9,0,33981,96.7,198088,105272,3.6
2900,299,1,78,99.9,0,33152,96.7,198064,105369,3.6
2910,300,1,78,99.9,0,32307,96.7,198212,105443,3.6
2920,301,1,78,99.9,0,31422,96.7,198246,105541,3.6
2930,302,1,78,99.9,0,30496,96.7,198353,105592,3.6
2940,303,1,78,99.9,0,29554,96.7,198427,105685,3.6
4680,477,1,78,99.9,0,16871,96.7,198781,106123,3.6
4690,478,1,78,99.9,0,16532,96.7,198737,106051,3.6
4700,479,1,78,99.9,0,16193,96.7,198633,105936,3.6
4710,480,1,78,99.9,0,15895,96.7,198497,105730,3.6
4720,481,1,78,99.9,0,15651,96.7,198252,105457,3.6
4730,482,1,78,99.9,0,15501,96.7,198011,105144,3.6
4740,483,1,78,99.9,0,15473,96.7,197763,104783,3.6
4750,484,1,78,99.9,0,15649,96.7,197401,104321,3.6
4760,485,1,78,99.9,0,16097,96.7,197035,103869,3.6
4770,486,1,78,99.9,0,16897,96.7,196727,103499,3.6
4780,487,1,78,99.9,0,18121,96.7,196459,103192,3.6
4790,488,1,78,99.9,0,19822,96.7,196255,102967,3.6
4800,489,1,78,99.9,0,22043,96.7,196085,102770,3.6
4810,490,1,78,99.9,0,24788,96.1,195981,102630,3.6
4820,491,1,78,99.9,0,28005,96.1,195883,102510,3.6
4830,492,1,78,99.9,0,31615,96.1,195780,102419,3.6
4840,493,1,78,99.9,0,35555,96.1,195692,102344,3.6
4850,494,1,78,99.9,0,39687,96.1,195712,102288,3.6
4860,495,1,78,99.9,0,43883,96.1,195641,102239,3.6
4870,496,1,78,99.9,0,48018,96.1,195598,102213,3.6
4880,497,1,78,99.9,0,51949,96.1,195592,102191,3.6
4890,498,1,78,99.9,0,55589,96.1,195610,102185,3.6
4900,499,1,78,99.9,0,58855,96.1,195635,102197,3.6
4910,500,1,78,99.9,0,61647,96.1,195647,102257,3.6
4920,501,1,78,99.9,16,62258,96.1,195711,153449,3.6
4930,502,1,78,99.9,16,62026,96.1,195826,153604,3.6
4940,503,1,78,99.9,16,57960,96.1,195891,153762,3.6
4950,504,1,78,99.9,16,46876,96.1,196005,153917,3.6
4960,505,1,78,99.9,16,26618,96.1,196074,154076,3.6
4970,506,1,78,99.9,16,3276,96.1,196159,154229,3.6
4980,507,1,78,99.9,16,3276,96.1,196221,154392,3.6
4990,508,1,78,99.9,16,3276,96.1,196292,154498,3.6
5000,509,1,78,99.9,16,3276,96.1,196320,154626,3.6
5010,510,1,78,99.9,16,3276,96.1,196415,154717,3.6
5020,511,1,78,99.9,16,3276,96.1,196433,154804,3.6
5030,512,1,78,99.9,16,1341,96.1,196473,154863,3.6
5040,513,1,78,99.9,16,1,96.1,196510,154987,3.6
5050,514,1,78,99.9,16,1,96.1,196584,155069,3.6
5060,515,1,78,99.9,16,1,96.1,196650,155155,3.6
5070,516,1,78,99.9,16,1,96.1,196733,155241,3.6
5080,517,1,78,99.9,16,1,96.1,196766,155330,3.6
5090,518,1,78,99.9,16,1,96.1,196785,155449,3.6
5100,519,1,78,99.9,16,1,96.1,196819,155491,3.6
5110,520,1,78,99.9,16,1,96.1,196859,155619,3.6
5120,521,1,78,99.9,16,1,96.1,196947,155676,3.6
5130,522,1,78,99.9,16,1,96.1,196943,155817,3.6
5140,523,1,78,99.9,16,1,96.1,197072,155919,3.6
5150,524,1,78,99.9,16,1,96.1,197086,156054,3.6
5160,525,1,78,99.9,16,1,96.1,197157,156154,3.6
5170,526,1,78,99.9,16,1,96.1,197204,156258,3.6
5180,527,1,78,99.9,16,1,96.1,197287,156379,3.6
5190,528,1,78,99.9,16,1,96.1,197302,156509,3.6
5200,529,1,78,99.9,16,1,96.1,197353,156601,3.6
5210,530,1,78,99.9,16,1,96.1,197432,156748,3.6
5220,531,1,78,99.9,16,1,96.1,197479,156867,3.6
5230,532,1,78,99.9,16,1,96.1,197591,156988,3.6
5240,533,1,78,99.9,16,1,96.1,197620,157098,3.6
5250,534,1,78,99.9,16,347,96.1,197694,157242,3.6
5260,535,1,78,99.9,16,747,96.1,197742,157334,3.6
5270,536,1,78,99.9,16,1075,96.1,197851,157444,3.6
5280,537,1,78,99.9,16,1349,96.1,197903,157541,3.6
5290,538,1,78,99.9,16,1587,96.1,197965,157664,3.6
5300,539,1,78,99.9,16,1807,96.1,198012,157725,3.6
5310,540,1,78,99.9,16,2024,96.1,198103,157866,3.6
5320,541,1,78,99.9,16,2248,96.1,198113,157916,3.6
5330,542,1,78,99.9,16,2491,96.1,198155,157990,3.6
5340,543,1,78,99.9,16,2757,96.1,198192,158089,3.6
5350,544,1,78,99.9,16,3049,96.1,198277,158179,3.6
5360,545,1,78,99.9,16,3349,96.1,198324,158293,3.6
5370,546,1,78,99.9,16,3661,96.1,198354,158338,3.6
5380,547,1,78,99.9,16,4003,96.1,198429,158435,3.6
5390,548,1,78,99.9,16,4370,96.1,198475,158526,3.6
5400,549,1,78,99.9,16,4754,96.1,198579,158658,3.6
5410,550,1,78,99.9,16,5152,96.1,198603,158748,3.6
5420,551,1,78,99.9,16,5554,96.1,198670,158870,3.6
5430,552,1,78,99.9,16,5956,96.1,198673,158915,3.6
5440,553,1,78,99.9,16,6351,96.1,198774,158980,3.6
5450,554,1,78,99.9,16,6737,96.1,198744,158981,3.6
5460,555,1,78,99.9,16,7110,96.1,198711,158896,3.6
5470,556,1,78,99.9,16,7470,96.1,198617,158660,3.6
5480,557,1,78,99.9,16,7816,96.1,198440,158251,3.6
5490,558,1,78,99.9,16,8153,96.1,198191,157809,3.6
5500,559,1,78,99.9,16,8486,96.1,197935,157302,3.6
5510,560,1,78,99.9,16,8822,96.1,197590,156695,3.6
5520,561,1,78,99.9,16,9172,96.1,197210,156013,3.6
5530,562,1,78,99.9,16,9544,96.1,196873,155335,3.6
5540,563,1,78,99.9,16,9949,96.1,196579,154820,3.6
5550,564,1,78,99.9,16,10394,96.1,196344,154374,3.6
5560,565,1,78,99.9,16,10887,96.1,196092,154082,3.6
5570,566,1,78,99.9,16,11429,96.1,195937,153805,3.6
5580,567,1,78,99.9,16,12021,96.1,195827,153574,3.6
5590,568,1,78,99.9,16,12656,96.1,195710,153412,3.6
5600,569,1,78,99.9,16,13327,96.1,195613,153243,3.6
5610,570,1,78,99.9,16,14025,96.1,195500,153154,3.6
5620,571,1,78,99.9,16,14738,96.1,195446,153011,3.6
5630,572,1,78,99.9,16,15430,96.1,195380,152978,3.6
5640,573,1,78,99.9,16,16094,96.1,195332,152920,3.6
5650,574,1,78,99.9,16,16735,96.1,195327,152866,3.6
5660,575,1,78,99.9,16,17345,96.1,195331,152883,3.6
5670,576,1,78,99.9,16,17919,96.1,195312,152913,3.6
5680,577,1,78,99.9,16,18447,96.1,195390,152990,3.6
5690,578,1,78,99.9,16,18924,96.1,195439,153141,3.6
5700,579,1,78,99.9,16,19351,96.1,195506,153277,3.6
5710,580,1,78,99.9,16,19724,96.1,195616,153420,3.6
5720,581,1,78,99.9,16,20039,96.1,195702,153612,3.6
5730,582,1,78,99.9,16,20301,96.1,195824,153762,3.6
5740,583,1,78,99.9,16,20509,96.1,195903,153946,3.6
5750,584,1,78,99.9,16,20671,96.1,195984,154078,3.6
5760,585,1,78,99.9,16,20789,96.1,196103,154230,3.6
5770,586,1,78,99.9,16,20874,96.1,196189,154352,3.6
5780,587,1,78,99.9,16,20926,96.1,196290,154477,3.6
5790,588,1,78,99.9,16,20958,96.1,196359,154579,3.6
5800,589,1,78,99.9,16,20970,96.1,196441,154698,3.6
5810,590,1,78,99.9,16,20975,96.1,196519,154808,3.6
5820,591,1,78,99.9,16,20973,96.1,196586,154886,3.6
5830,592,1,78,99.9,16,20968,96.1,196636,154996,3.6
5840,593,1,78,99.9,16,20968,96.1,196723,155085,3.6
5850,594,1,78,99.9,16,20971,96.1,196786,155169,3.6
5860,595,1,78,99.9,16,20986,96.1,196826,155272,3.6
5870,596,1,78,99.9,16,21010,96.1,196850,155366,3.6
5880,597,1,78,99.9,16,21046,96.1,196920,155472,3.6
5890,598,1,78,99.9,16,21091,96.1,196998,155601,3.6
5900,599,1,78,99.9,16,21147,96.1,197079,155708,3.6
5910,600,1,78,99.9,16,21212,96.1,197155,155825,3.6
5920,601,1,78,99.9,16,21283,96.1,197182,155940,3.6
5930,602,1,78,99.9,16,21358,96.1,197280,156091,3.6
5940,603,1,78,99.9,16,21437,96.1,197295,156150,3.6
5950,604,1,78,99.9,16,21516,96.1,197284,156219,3.6
5960,605,1,78,99.9,16,21593,96.1,197263,156277,3.6
5970,606,1,78,99.9,16,21669,96.1,197223,156312,3.6
5980,607,1,78,99.9,16,21741,96.1,197204,156382,3.6
5990,608,1,78,99.9,16,21809,96.1,197218,156465,3.6
6000,609,1,78,99.9,16,21879,96.1,197247,156565,3.6
6010,610,1,78,99.9,16,21948,96.1,197329,156691,3.6
6020,611,1,78,99.9,16,22014,96.1,197400,156820,3.6
6030,612,1,78,99.9,16,22081,96.1,197536,156999,3.6
6040,613,1,78,99.9,16,22146,96.1,197655,157159,3.6
6050,614,1,78,99.9,16,22209,96.1,197700,157266,3.6
6060,615,1,78,99.9,16,22268,96.1,197839,157409,3.6
6070,616,1,78,99.9,16,22325,96.1,197888,157517,3.6
6080,617,1,78,99.9,16,22379,96.1,197955,157621,3.6
6090,618,1,78,99.9,16,22425,96.1,197984,157693,3.6
6100,619,1,78,99.9,16,22469,96.1,198039,157786,3.6
6110,620,1,78,99.9,16,22507,96.1,198106,157871,3.6
6120,621,1,78,99.9,16,22543,96.1,198137,157974,3.6
6130,622,1,78,99.9,16,22575,96.1,198180,158053,3.6
6140,623,1,78,99.9,16,22606,96.1,198206,158142,3.6
6150,624,1,78,99.9,16,22636,96.1,198275,158231,3.6
6160,625,1,78,99.9,16,22665,96.1,198325,158342,3.6
6170,626,1,78,99.9,16,22700,96.1,198418,158464,3.6
6180,627,1,78,99.9,16,22734,96.1,198501,158586,3.6
6190,628,1,78,99.9,16,22771,96.1,198520,158670,3.6
6200,629,1,78,99.9,16,22808,96.1,198593,158784,3.6
6210,630,1,78,99.9,16,22851,96.1,198590,158878,3.6
6220,631,1,78,99.9,16,22892,96.1,198646,158931,3.6
6230,632,1,78,99.9,16,22937,96.1,198635,158913,3.6
6240,633,1,78,99.9,16,22985,96.1,198539,158779,3.6
6250,634,1,78,99.9,16,23034,96.1,198411,158530,3.6
6260,635,1,78,99.9,16,23090,96.1,198218,158166,3.6
6270,636,1,78,99.9,16,23152,96.1,197983,157738,3.6
6280,637,1,78,99.9,16,23228,96.1,197741,157217,3.6
6290,638,1,78,99.9,16,23322,96.1,197460,156655,3.6
6300,639,1,78,99.9,16,23447,96.1,197138,156018,3.6
6310,640,1,78,99.9,16,23611,96.1,196809,155371,3.6
6320,641,1,78,99.9,16,23818,96.1,196511,154856,3.6
6330,642,1,78,99.9,16,24077,96.1,196313,154469,3.6
6340,643,1,78,99.9,16,24393,96.1,196114,154137,3.6
6350,644,1,78,99.9,16,24767,96.1,196007,153899,3.6
6360,645,1,78,99.9,16,25195,96.1,195831,153627,3.6
6370,646,1,78,99.9,16,25671,96.1,195716,153479,3.6
6380,647,1,78,99.9,16,26190,96.1,195605,153312,3.6
6390,648,1,78,99.9,16,26737,96.1,195513,153218,3.6
6400,649,1,78,99.9,16,27297,96.1,195472,153100,3.6
6410,650,1,78,99.9,16,27859,96.1,195450,153077,3.6
6420,651,1,78,99.9,16,28409,96.1,195416,153050,3.6
6430,652,1,78,99.9,16,28933,96.1,195452,153053,3.6
6440,653,1,78,99.9,16,29422,96.1,195480,153067,3.6
6450,654,1,78,99.9,16,29862,96.1,195510,153118,3.6
6460,655,1,78,99.9,16,30250,96.1,195542,153196,3.6
6470,656,1,78,99.9,16,30581,96.1,195606,153307,3.6
6480,657,1,78,99.9,16,30848,96.1,195685,153460,3.6
6490,658,1,78,99.9,16,31054,96.1,195715,153571,3.6
6500,659,1,78,99.9,16,31202,96.1,195781,153708,3.6
6510,660,1,78,99.9,16,31293,96.1,195830,153836,3.6
6520,661,1,78,99.9,16,31332,96.1,195884,154001,3.6
6530,662,1,78,99.9,16,31328,96.1,195950,154143,3.6
6540,663,1,78,99.9,16,31281,96.1,196042,154240,3.6
6550,664,1,78,99.9,16,31199,96.1,196093,154367,3.6
6560,665,1,78,99.9,16,31093,96.1,196217,154502,3.6
6570,666,1,78,99.9,16,30964,96.1,196299,154635,3.6
6580,667,1,78,99.9,16,30825,96.1,196389,154723,3.6
6590,668,1,78,99.9,16,30674,96.1,196394,154789,3.6
6600,669,1,78,99.9,16,30525,96.1,196421,154856,3.6
6610,670,1,78,99.9,16,30376,96.1,196406,154888,3.6
6620,671,1,78,99.9,16,30234,96.1,196414,154941,3.6
6630,672,1,78,99.9,16,30103,96.1,196409,154999,3.6
6640,673,1,78,99.9,16,29984,96.1,196462,155079,3.6
6650,674,1,78,99.9,16,29880,96.1,196473,155163,3.6
6660,675,1,78,99.9,16,29791,96.1,196590,155295,3.6
6670,676,1,78,99.9,16,29716,96.1,196645,155418,3.6
6680,677,1,78,99.9,16,29654,96.1,196703,155523,3.6
6690,678,1,78,99.9,16,29603,96.1,196784,155650,3.6
6700,679,1,78,99.9,16,29563,96.1,196841,155768,3.6
6710,680,1,78,99.9,16,29527,96.1,196904,155899,3.6
6720,681,1,78,99.9,16,29497,96.1,196976,156020,3.6
6730,682,1,78,99.9,16,29465,96.1,197048,156155,3.6
6740,683,1,78,99.9,16,29431,96.1,197142,156288,3.6
6750,684,1,78,99.9,16,29390,96.1,197222,156396,3.6
6760,685,1,78,99.9,16,29347,96.1,197308,156535,3.6
6770,686,1,78,99.9,16,29297,96.1,197424,156709,3.6
6780,687,1,78,99.9,16,29238,96.1,197490,156833,3.6
6790,688,1,78,99.9,16,29172,96.1,197586,156951,3.6
6800,689,1,78,99.9,16,29097,96.1,197602,157055,3.6
6810,690,1,78,99.9,16,29017,96.1,197685,157186,3.6
6820,691,1,78,99.9,16,28929,96.1,197718,157241,3.6
6830,692,1,78,99.9,16,28838,96.1,197723,157355,3.6
6840,693,1,78,99.9,16,28744,96.1,197766,157455,3.6
6850,694,1,78,99.9,16,28650,96.1,197806,157540,3.6
6860,695,1,78,99.9,16,28556,96.1,197842,157640,3.6
6870,696,1,78,99.9,16,28464,96.1,197852,157747,3.6
6880,697,1,78,99.9,16,28378,96.1,197906,157819,3.6
6890,698,1,78,99.9,16,28297,96.1,197988,157969,3.6
6900,699,1,78,99.9,16,28224,96.1,198074,158062,3.6
6910,700,1,78,99.9,16,28155,96.1,198131,158178,3.6
6920,701,1,78,99.9,16,28093,96.1,198230,158289,3.6
6930,702,1,78,99.9,16,28036,96.1,198292,158398,3.6
6940,703,1,78,99.9,16,27983,96.1,198375,158508,3.6
6950,704,1,78,99.9,16,27934,96.1,198415,158613,3.6
6960,705,1,78,99.9,16,27887,96.1,198539,158722,3.6
6970,706,1,78,99.9,16,27843,96.1,198554,158830,3.6
6980,707,1,78,99.9,16,27798,96.1,198596,158911,3.6
6990,708,1,78,99.9,16,27753,96.1,198651,158971,3.6
7000,709,1,78,99.9,16,27709,96.1,198638,158984,3.6
7010,710,1,78,99.9,16,27664,96.1,198649,159009,3.6
7020,711,1,78,99.9,16,27623,96.1,198630,158870,3.6
7030,712,1,78,99.9,16,27585,96.1,198482,158627,3.6
7040,713,1,78,99.9,16,27549,96.1,198309,158276,3.6
7050,714,1,78,99.9,16,27522,96.1,198078,157830,3.6
7060,715,1,78,99.9,16,27511,96.1,197817,157315,3.6
7070,716,1,78,99.9,16,27523,96.1,197514,156726,3.6
7080,717,1,78,99.9,16,27570,96.1,197154,156067,3.6
7090,718,1,78,99.9,16,27661,96.1,196749,155387,3.6
7100,719,1,78,99.9,16,27807,96.1,196411,154793,3.6
7110,720,1,78,99.9,16,28010,96.1,196127,154340,3.6
7120,721,1,78,99.9,16,28287,96.1,195972,154012,3.6
7130,722,1,78,99.9,16,28635,96.1,195812,153759,3.6
7140,723,1,78,99.9,16,29054,96.1,195660,153543,3.6
7150,724,1,78,99.9,16,29535,96.1,195576,153358,3.6
7160,725,1,78,99.9,16,30067,96.1,195520,153247,3.6
7170,726,1,78,99.9,16,30637,96.1,195452,153182,3.6
7180,727,1,78,99.9,16,31227,96.1,195512,153137,3.6
7190,728,1,78,99.9,16,31819,96.1,195484,153061,3.6
7200,729,1,78,99.9,16,32398,96.1,195480,153076,3.6
7210,730,1,78,99.9,16,32950,96.1,195442,153040,3.6
7220,731,1,78,99.9,16,33452,96.1,195440,153035,3.6
7230,732,1,78,99.9,16,33901,96.1,195441,153084,3.6
7240,733,1,78,99.9,16,34282,96.1,195519,153189,3.6
7250,734,1,78,99.9,16,34596,96.1,195554,153307,3.6
7260,735,1,78,99.9,16,34836,96.1,195668,153453,3.6
7270,736,1,78,99.9,16,35003,96.1,195730,153573,3.6
7280,737,1,78,99.9,16,35103,96.1,195813,153752,3.6
7290,738,1,78,99.9,16,35136,96.1,195888,153895,3.6
7300,739,1,78,99.9,16,35109,96.1,195990,154075,3.6
7310,740,1,78,99.9,0,35027,96.1,196034,154168,3.6
7320,741,1,78,99.9,0,34900,96.1,196120,154325,3.6
7330,742,1,78,99.9,0,34734,96.1,196168,154409,3.6
7340,743,1,78,99.9,0,34541,96.1,196219,154563,3.6
7350,744,1,78,99.9,0,34328,96.1,196327,154650,3.6
7360,745,1,78,99.9,0,34099,96.1,196344,154755,3.6
7370,746,1,78,99.9,0,33864,96.1,196396,154877,3.6
7380,747,1,78,99.9,0,33626,96.1,196465,154990,3.6
7390,748,1,78,99.9,0,33395,96.1,196506,155098,3.6
7400,749,1,78,99.9,0,33173,96.1,196576,155210,3.6
7410,750,1,78,99.9,0,32962,96.1,196659,155338,3.6
7420,751,1,78,99.9,0,32765,96.1,196761,155472,3.6
7430,752,1,78,99.9,0,32582,96.1,196831,155617,3.6
7440,753,1,78,99.9,0,32413,96.1,196906,155733,3.6
7450,754,1,78,99.9,0,32261,96.1,196954,155879,3.6
7460,755,1,78,99.9,0,32115,96.1,197046,155996,3.6
7470,756,1,78,99.9,0,31979,96.1,197094,156121,3.6
7480,757,1,78,99.9,0,31851,96.1,197110,156249,3.6
7490,758,1,78,99.9,0,31726,96.1,197210,156401,3.6
7500,759,1,78,99.9,0,31604,96.1,197279,156519,3.6
7510,760,1,78,99.9,0,31484,96.1,197340,156651,3.6
7520,761,1,78,99.9,0,31361,96.1,197385,156789,3.6
7530,762,1,78,99.9,0,31237,96.1,197410,156880,3.6
7540,763,1,78,99.9,0,31110,96.1,197502,157060,3.6
7550,764,1,78,99.9,0,30978,96.1,197568,157210,3.6
7560,765,1,78,99.9,0,30843,96.1,197633,157325,3.6
7570,766,1,78,99.9,0,30707,96.1,197733,157439,3.6
7580,767,1,78,99.9,0,30566,96.1,197816,157609,3.6
7590,768,1,78,99.9,0,30425,96.1,197893,157771,3.6
7600,769,1,78,99.9,0,30280,96.1,197949,157866,3.6
7610,770,1,78,99.9,0,30137,96.1,198018,158017,3.6
7620,771,1,78,99.9,0,29994,96.1,198083,158142,3.6
7630,772,1,78,99.9,0,29850,96.1,198151,158259,3.6
7640,773,1,78,99.9,0,29706,96.1,198247,158363,3.6
7650,774,1,78,99.9,0,29562,96.1,198275,158481,3.6
7660,775,1,78,99.9,0,29419,96.1,198304,158588,3.6
7670,776,1,78,99.9,0,29284,96.1,198411,158670,3.6
7680,777,1,78,99.9,0,29151,96.1,198450,158800,3.6
7690,778,1,78,99.9,0,29023,96.1,198522,158860,3.6
7700,779,1,78,99.9,0,28900,96.1,198549,158980,3.6
7710,780,1,78,99.9,0,28784,96.1,198582,159073,3.6
7720,781,1,78,99.9,0,28675,96.1,198663,159172,3.6
7730,782,1,78,99.9,0,28569,96.1,198688,159256,3.6
7740,783,1,78,99.9,0,28478,96.1,198737,159322,3.6
7750,784,1,78,99.9,0,28389,96.1,198753,159406,3.6
7760,785,1,78,99.9,0,28306,96.1,198807,159518,3.6
7770,786,1,78,99.9,0,28230,96.1,198851,159609,3.6
7780,787,1,78,99.9,0,28162,96.1,198843,159651,3.6
7790,788,1,78,99.9,0,28099,96.1,198905,159710,3.6
7800,789,1,78,99.9,0,28038,96.1,198899,159642,3.6
7810,790,1,78,99.9,0,27985,96.1,198792,159434,3.6
7820,791,1,78,99.9,0,27940,96.1,198656,159136,3.6
7830,792,1,78,99.9,0,27903,96.1,198440,158721,3.6
7840,793,1,78,99.9,0,27884,96.1,198205,158256,3.6
7850,794,1,78,99.9,0,27889,96.1,197915,157669,3.6
7860,795,1,78,99.9,0,27929,96.1,197581,157007,3.6
7870,796,1,78,99.9,0,28015,96.1,197216,156332,3.6
7880,797,1,78,99.9,0,28157,96.1,196896,155726,3.6
7890,798,1,78,99.9,0,28364,96.1,196657,155310,3.6
7900,799,1,78,99.9,0,28649,96.1,196414,154963,3.6
7910,800,1,78,99.9,0,29014,96.1,196219,154668,3.6
7920,801,1,78,99.9,0,29455,96.1,196099,154432,3.6
7930,802,1,78,99.9,0,29970,96.1,195957,154265,3.6
7940,803,1,78,99.9,0,30550,96.1,195862,154113,3.6
7950,804,1,78,99.9,0,31175,96.1,195836,154062,3.6
7960,805,1,78,99.9,0,31830,96.1,195793,153966,3.6
7970,806,1,78,99.9,0,32495,96.1,195743,153891,3.6
7980,807,1,78,99.9,0,33149,96.1,195721,153868,3.6
7990,808,1,78,99.9,0,33776,96.1,195729,153842,3.6
8000,809,1,78,99.9,0,34358,96.1,195696,153887,3.6
8010,810,1,78,99.9,0,34882,96.1,195725,153906,3.6
8020,811,1,78,99.9,0,35334,96.1,195757,153957,3.6
8030,812,1,78,99.9,0,35708,96.1,195776,154088,3.6
8040,813,1,78,99.9,0,36000,96.1,195876,154219,3.6
8050,814,1,78,99.9,0,36210,96.1,195953,154340,3.6
8060,815,1,78,99.9,0,36340,96.1,196055,154515,3.6
8070,816,1,78,99.9,0,36396,96.1,196139,154644,3.6
8080,817,1,78,99.9,0,36383,96.1,196217,154761,3.6
8090,818,1,78,99.9,8,36306,96.1,196296,154898,3.6
8100,819,1,78,99.9,0,36173,96.1,196337,155019,3.6
8110,820,1,78,99.9,0,35992,96.3,196412,155131,3.6
8120,821,1,78,99.9,0,35780,96.3,196448,155180,3.6
8130,822,1,78,99.9,0,35541,96.3,196468,155272,3.6
8140,823,1,78,99.9,0,35285,96.3,196502,155347,3.6
8150,824,1,78,99.9,0,35023,96.3,196543,155373,3.6
8160,825,1,78,99.9,0,34756,96.3,196594,155462,3.6
8170,826,1,78,99.9,0,34500,96.3,196626,155509,3.6
8180,827,1,78,99.9,0,34257,96.3,196709,155649,3.6
8190,828,1,78,99.9,0,34028,96.3,196743,155732,3.6
8200,829,1,78,99.9,0,33820,96.3,196803,155805,3.6
8210,830,1,78,99.9,0,33635,96.3,196862,155906,3.6
8220,831,1,78,99.9,0,33468,96.3,196913,155977,3.6
8230,832,1,78,99.9,0,33321,96.3,196989,156120,3.6
8240,833,1,78,99.9,0,33190,96.3,197099,156241,3.6
8250,834,1,78,99.9,0,33071,96.3,197102,156264,3.6
8260,835,1,78,99.9,0,32959,96.3,197120,156354,3.6
8270,836,1,78,99.9,0,32853,96.3,197169,156471,3.6
8280,837,1,78,99.9,0,32753,96.3,197303,156625,3.6
8290,838,1,78,99.9,0,32654,96.3,197331,156741,3.6
8300,839,1,78,99.9,0,32556,96.3,197373,156825,3.6
8310,840,1,78,99.9,0,32451,96.3,197464,156963,3.6
8320,841,1,78,99.9,0,32340,96.3,197546,157091,3.6
8330,842,1,78,99.9,0,32222,96.3,197601,157203,3.6
8340,843,1,78,99.9,0,32096,96.3,197686,157316,3.6
8350,844,1,78,99.9,0,31960,96.3,197734,157449,3.6
8360,845,1,78,99.9,0,31824,96.3,197795,157542,3.6
8370,846,1,78,99.9,0,31681,96.3,197851,157652,3.6
8380,847,1,78,99.9,0,31529,96.3,197925,157754,3.6
8390,848,1,78,99.9,0,31377,96.3,197995,157878,3.6
8400,849,1,78,99.9,0,31218,96.3,198068,157998,3.6
8410,850,1,78,99.9,0,31061,96.3,198156,158139,3.6
8420,851,1,78,99.9,0,30901,96.3,198209,158237,3.6
8430,852,1,78,99.9,0,30743,96.3,198257,158320,3.6
8440,853,1,78,99.9,0,30588,96.3,198304,158417,3.6
8450,854,1,78,99.9,0,30435,96.3,198312,158525,3.6
8460,855,1,78,99.9,0,30287,96.3,198352,158585,3.6
8470,856,1,78,99.9,0,30145,96.3,198432,158671,3.6
8480,857,1,78,99.9,0,30009,96.3,198457,158778,3.6
8490,858,1,78,99.9,0,29878,96.3,198493,158878,3.6
8500,859,1,78,99.9,0,29749,96.3,198551,158939,3.6
8510,860,1,78,99.9,0,29629,96.3,198603,159029,3.6
8520,861,1,78,99.9,0,29518,96.3,198601,159123,3.6
8530,862,1,78,99.9,0,29413,96.3,198673,159242,3.6
8540,863,1,78,99.9,0,29313,96.3,198711,159341,3.6
8550,864,1,78,99.9,0,29219,96.3,198746,159403,3.6
8560,865,1,78,99.9,0,29131,96.3,198731,159454,3.6
8570,866,1,78,99.9,0,29046,96.3,198746,159428,3.6
8580,867,1,78,99.9,0,28963,96.3,198738,159329,3.6
8590,868,1,78,99.9,0,28886,96.3,198584,159054,3.6
8600,869,1,78,99.9,0,28818,96.3,198353,158657,3.6
8610,870,1,78,99.9,0,28766,96.3,198161,158246,3.6
8620,871,1,78,99.9,0,28734,96.3,197920,157737,3.6
8630,872,1,78,99.9,0,28730,96.3,197685,157216,3.6
8640,873,1,78,99.9,0,28776,96.3,197374,156561,3.6
8650,874,1,78,99.9,0,28874,96.3,197021,155957,3.6
8660,875,1,78,99.9,0,29043,96.3,196745,155458,3.6
8670,876,1,78,99.9,0,29291,96.3,196592,155099,3.6
8680,877,1,78,99.9,0,29622,96.3,196446,154830,3.6
8690,878,1,78,99.9,0,30039,96.3,196320,154622,3.6
8700,879,1,78,99.9,0,30539,96.3,196214,154456,3.6
8710,880,1,78,99.9,0,31108,96.3,196166,154333,3.6
8720,881,1,78,99.9,0,31733,96.3,196139,154244,3.6
8730,882,1,78,99.9,0,32398,96.3,196085,154172,3.6
8740,883,1,78,99.9,0,33081,96.3,196069,154116,3.6
8750,884,1,78,99.9,0,33757,96.3,196104,154122,3.6
8760,885,1,78,99.9,0,34410,96.3,196079,154134,3.6
8770,886,1,78,99.9,0,35022,96.3,196050,154107,3.6
8780,887,1,78,99.9,0,35573,96.3,196114,154156,3.6
8790,888,1,78,99.9,0,36050,96.3,196160,154288,3.6
8800,889,1,78,99.9,0,36445,96.3,196260,154422,3.6
8810,890,1,78,99.9,0,36753,96.3,196322,154551,3.6
8820,891,1,78,99.9,0,36970,96.3,196428,154752,3.6
8830,892,1,78,99.9,0,37099,96.3,196552,154946,3.6
8840,893,1,78,99.9,0,37138,96.3,196658,155081,3.6
8850,894,1,78,99.9,8,37100,96.3,196732,155201,3.6
8860,895,1,78,99.9,0,36983,96.3,196767,155363,3.6
8870,896,1,78,99.9,0,36801,96.3,196874,155478,3.6
8880,897,1,78,99.9,0,36567,96.3,196896,155575,3.6
8890,898,1,78,99.9,0,36290,96.3,196943,155669,3.6
8900,899,1,78,99.9,0,35980,96.3,197002,155751,3.6
8910,900,1,78,99.9,0,35653,96.3,197033,155823,3.6
8920,901,1,78,99.9,0,35312,96.3,197052,155906,3.6
8930,902,1,78,99.9,0,34972,96.3,197099,155968,3.6
8940,903,1,78,99.9,0,34645,96.3,197147,156066,3.6
8950,904,1,78,99.9,0,34333,96.3,197180,156131,3.6
8960,905,1,78,99.9,0,34042,96.3,197198,156243,3.6
8970,906,1,78,99.9,0,33773,96.3,197231,156296,3.6
8980,907,1,78,99.9,0,33533,96.3,197265,156365,3.6
8990,908,1,78,99.9,0,33318,96.3,197317,156449,3.6
9000,909,1,78,99.9,0,33125,96.3,197349,156557,3.6
9010,910,1,78,99.9,0,32961,96.3,197426,156671,3.6
9020,911,1,78,99.9,0,32813,96.3,197394,156739,3.6
9030,912,1,78,99.9,0,32684,96.3,197428,156835,3.6
9040,913,1,78,99.9,0,32568,96.3,197532,156935,3.6
9050,914,1,78,99.9,0,32462,96.3,197542,157022,3.6
9060,915,1,78,99.9,0,32358,96.3,197611,157125,3.6
9070,916,1,78,99.9,0,32254,96.3,197688,157233,3.6
9080,917,1,78,99.9,0,32146,96.3,197758,157357,3.6
9090,918,1,78,99.9,0,32038,96.3,197781,157442,3.6
9100,919,1,78,99.9,0,31922,96.3,197883,157551,3.6
9110,920,1,78,99.9,0,31800,96.3,197997,157659,3.6
9120,921,1,78,99.9,0,31667,96.3,197988,157758,3.6
9130,922,1,78,99.9,0,31526,96.3,198046,157852,3.6
9140,923,1,78,99.9,0,31379,96.3,198056,157978,3.6
9150,924,1,78,99.9,0,31224,96.3,198238,158182,3.6
9160,925,1,78,99.9,0,31065,96.3,198246,158210,3.6
9170,926,1,78,99.9,0,30906,96.3,198275,158269,3.6
9180,927,1,78,99.9,0,30742,96.3,198326,158392,3.6
9190,928,1,78,99.9,0,30571,96.3,198444,158539,3.6
9200,929,1,78,99.9,0,30404,96.3,198479,158643,3.6
9210,930,1,78,99.9,0,30238,96.3,198408,158759,3.6
9220,931,1,78,99.9,0,30076,96.3,198597,158873,3.6
9230,932,1,78,99.9,0,29913,96.3,198597,158952,3.6
9240,933,1,78,99.9,0,29753,96.3,198675,159047,3.6
9250,934,1,78,99.9,0,29600,96.3,198746,159164,3.6
9260,935,1,78,99.9,0,29446,96.3,198809,159275,3.6
9270,936,1,78,99.9,0,29298,96.3,198904,159373,3.6
9280,937,1,78,99.9,0,29157,96.3,198947,159487,3.6
9290,938,1,78,99.9,0,29019,96.3,199002,159586,3.6
9300,939,1,78,99.9,0,28887,96.3,199075,159699,3.6
9310,940,1,78,99.9,0,28755,96.3,198982,159797,3.6
9320,941,1,78,99.9,0,28626,96.3,199120,159846,3.6
9330,942,1,78,99.9,0,28501,96.3,199135,159874,3.6
9340,943,1,78,99.9,0,28378,96.3,199130,159839,3.6
9350,944,1,78,99.9,0,28262,96.3,199065,159667,3.6
9360,945,1,78,99.9,0,28149,96.3,198900,159359,3.6
9370,946,1,78,100.0,0,28046,96.3,198698,158926,3.6
9380,947,1,78,100.0,0,27964,96.3,198424,158494,3.6
9390,948,1,78,100.0,0,27921,96.3,198166,157998,3.6
9400,949,1,78,100.0,0,27917,96.3,197913,157447,3.6
9410,950,1,78,100.0,0,27976,96.3,197594,156875,3.6
9420,951,1,78,100.0,0,28103,96.3,197250,156321,3.6
9430,952,1,78,100.0,0,28319,96.3,197028,155877,3.6
9440,953,1,78,100.0,0,28631,96.3,196818,155536,3.6
9450,954,1,78,100.0,0,29041,96.3,196653,155247,3.6
9460,955,1,78,100.0,0,29549,96.3,196538,155050,3.6
9470,956,1,78,100.0,0,30148,96.3,196455,154938,3.6
9480,957,1,78,100.0,0,30821,96.3,196396,154803,3.6
9490,958,1,78,100.0,0,31560,96.3,196387,154707,3.6
9500,959,1,78,100.0,0,32332,96.3,196369,154664,3.6
9510,960,1,78,100.0,0,33120,96.3,196352,154602,3.6
9520,961,1,78,100.0,0,33901,96.3,196316,154606,3.6
9530,962,1,78,100.0,0,34649,96.3,196303,154577,3.6
9540,963,1,78,100.0,0,35345,96.3,196327,154613,3.6
9550,964,1,78,100.0,0,35967,96.3,196379,154679,3.6
9560,965,1,78,100.0,0,36504,96.3,196363,154775,3.6
9570,966,1,78,100.0,0,36948,96.3,196425,154858,3.6
9580,967,1,78,100.0,0,37290,96.3,196532,155008,3.6
9590,968,1,78,100.0,0,37536,96.3,196581,155119,3.6
9600,969,1,78,100.0,0,37679,96.3,196622,155286,3.6
9610,970,1,78,100.0,0,37731,96.3,196719,155422,3.6
9620,971,1,78,100.0,8,37695,96.3,196790,155551,3.6
9630,972,1,78,100.0,0,37578,96.3,196834,155688,3.6
9640,973,1,78,100.0,0,37395,96.3,196886,155771,3.6
9650,974,1,78,100.0,0,37159,96.3,196969,155889,3.6
9660,975,1,78,100.0,0,36870,96.3,197051,155996,3.6
9670,976,1,78,100.0,0,36555,96.3,197081,156083,3.6
9680,977,1,78,100.0,0,36220,96.3,197137,156136,3.6
9690,978,1,78,100.0,0,35876,96.3,197212,156285,3.6
9700,979,1,78,100.0,0,35528,96.3,197262,156319,3.6
9710,980,1,78,100.0,0,35186,96.3,197320,156412,3.6
9720,981,1,78,100.0,0,34861,96.3,197331,156470,3.6
9730,982,1,78,100.0,0,34558,96.3,197365,156569,3.6
9740,983,1,78,100.0,0,34272,96.3,197414,156654,3.6
9750,984,1,78,100.0,0,34016,96.3,197482,156770,3.6
9760,985,1,78,100.0,0,33781,96.3,197544,156862,3.6
9770,986,1,78,100.0,0,33571,96.3,197575,156946,3.6
9780,987,1,78,100.0,0,33384,96.3,197643,157064,3.6
9790,988,1,78,100.0,0,33214,96.3,197733,157187,3.6
9800,989,1,78,100.0,0,33059,96.3,197800,157316,3.6
9810,990,1,78,100.0,0,32912,96.3,197892,157442,3.6
9820,991,1,78,100.0,0,32767,96.3,197973,157565,3.6
9830,992,1,78,100.0,0,32622,96.3,198038,157710,3.6
9840,993,1,78,100.0,0,32476,96.3,198112,157855,3.6
9850,994,1,78,100.0,0,32322,96.3,198160,157972,3.6
9860,995,1,78,100.0,0,32160,96.3,198200,158051,3.6
9870,996,1,78,100.0,0,31985,96.3,198270,158158,3.6
9880,997,1,78,100.0,0,31807,96.3,198345,158269,3.6
9890,998,1,78,100.0,0,31611,96.3,198414,158382,3.6
9900,999,1,78,100.0,0,31408,96.3,198458,158517,3.6
9910,1000,1,78,100.0,0,31200,96.3,198507,158624,3.6
9920,1001,1,78,100.0,0,30987,96.3,198583,158730,3.6
9930,1002,1,78,100.0,0,30770,96.3,198686,158851,3.6
9940,1003,1,78,100.0,0,30551,96.3,198747,158971,3.6
9950,1004,1,78,100.0,0,30336,96.3,198791,159087,3.6
9960,1005,1,78,100.0,0,30120,96.3,198888,159200,3.6
9970,1006,1,78,100.0,0,29908,96.3,198931,159305,3.6
9980,1007,1,78,100.0,0,29698,96.3,199009,159430,3.6
9990,1008,1,78,100.0,0,29496,96.3,199061,159529,3.6
10000,1009,1,78,100.0,0,29301,96.3,199121,159643,3.6
10010,1010,1,78,100.0,0,29113,96.3,199192,159737,3.6
10020,1011,1,78,100.0,0,28933,96.3,199255,159872,3.6
10030,1012,1,78,100.0,0,28756,96.3,199303,159965,3.6
10040,1013,1,78,100.0,0,28582,96.3,199412,160110,3.6
10050,1014,1,78,100.0,0,28416,96.3,199433,160205,3.6
10060,1015,1,78,100.0,0,28258,96.3,199485,160301,3.6
10070,1016,1,78,100.0,0,28098,96.3,199522,160391,3.6
10080,1017,1,78,100.0,0,27943,96.3,199588,160465,3.6
10090,1018,1,78,100.0,0,27791,96.3,199565,160369,3.6
10100,1019,1,78,100.0,0,27646,96.3,199487,160157,3.6
10110,1020,1,78,100.0,0,27505,96.3,199273,159706,3.6
10120,1021,1,78,100.0,0,27384,96.3,199078,159346,3.6
10130,1022,1,78,100.0,0,27287,96.3,198825,158927,3.6
10140,1023,1,78,100.0,0,27229,96.3,198577,158413,3.6
10150,1024,1,78,100.0,0,27233,96.3,198281,157846,3.6
10160,1025,1,78,100.0,0,27309,96.3,197998,157334,3.6
10170,1026,1,78,100.0,0,27470,96.3,197680,156762,3.6
10180,1027,1,78,100.0,0,27734,96.3,197436,156343,3.6
10190,1028,1,78,100.0,0,28104,96.3,197259,155986,3.6
10200,1029,1,78,100.0,0,28589,96.3,197085,155714,3.6
10210,1030,1,78,100.0,0,29190,96.3,196942,155460,3.6
10220,1031,1,78,100.0,0,29891,96.3,196884,155364,3.6
10230,1032,1,78,100.0,0,30677,96.3,196780,155207,3.6
10240,1033,1,78,100.0,0,31535,96.3,196716,155111,3.6
10250,1034,1,78,100.0,0,32430,96.3,196708,155045,3.6
10260,1035,1,78,100.0,0,33336,96.3,196634,154989,3.6
10270,1036,1,78,100.0,0,34229,96.3,196640,154969,3.6
10280,1037,1,78,100.0,0,35088,96.3,196633,154965,3.6
10290,1038,1,78,100.0,0,35884,96.3,196654,155006,3.6
10300,1039,1,78,100.0,0,36595,96.3,196731,155069,3.6
10310,1040,1,78,100.0,0,37209,96.3,196818,155044,3.6
10320,1041,1,78,100.0,0,37712,96.3,196887,155342,3.6
10330,1042,1,78,100.0,0,38099,96.3,196989,155491,3.6
10340,1043,1,78,100.0,0,38371,96.3,197077,155630,3.6
10350,1044,1,78,100.0,0,38523,96.3,197174,155781,3.6
10360,1045,1,78,100.0,0,38561,96.3,197241,155903,3.6
10370,1046,1,78,100.0,8,38495,96.3,197343,156045,3.6
10380,1047,1,78,100.0,0,38336,96.3,197435,156140,3.6
10390,1048,1,78,100.0,0,38092,96.3,197450,156238,3.6
10400,1049,1,78,100.0,0,37784,96.3,197534,156319,3.6
10410,1050,1,78,100.0,0,37421,96.3,197544,156383,3.6
10420,1051,1,78,100.0,0,37026,96.3,197572,156418,3.6
10430,1052,1,78,100.0,0,36605,96.3,197642,156472,3.6
10440,1053,1,78,100.0,0,36179,96.3,197681,156549,3.6
10450,1054,1,78,100.0,0,35755,96.3,197746,156624,3.6
10460,1055,1,78,100.0,0,35351,96.3,197734,156710,3.6
10470,1056,1,78,100.0,0,34971,96.3,197815,156752,3.6
10480,1057,1,78,100.0,0,34620,96.3,197837,156858,3.6
10490,1058,1,78,100.0,0,34311,96.3,197858,156936,3.6
10500,1059,1,78,100.0,0,34030,96.3,197910,157008,3.6
10510,1060,1,78,100.0,0,33791,96.3,197980,157083,3.6
10520,1061,1,78,100.0,0,33578,96.3,198014,157195,3.6
10530,1062,1,78,100.0,0,33389,96.3,198074,157309,3.6
10540,1063,1,78,100.0,0,33226,96.3,198136,157444,3.6
10550,1064,1,78,100.0,0,33075,96.3,198191,157544,3.6
10560,1065,1,78,100.0,0,32937,96.3,198246,157678,3.6
10570,1066,1,78,100.0,0,32806,96.3,198338,157780,3.6
10580,1067,1,78,100.0,0,32667,96.3,198377,157926,3.6
10590,1068,1,78,100.0,0,32527,96.3,198428,158020,3.6
10600,1069,1,78,100.0,0,32364,96.3,198494,158143,3.6
10610,1070,1,78,100.0,0,32192,96.3,198532,158253,3.6
10620,1071,1,78,100.0,0,32011,96.3,198590,158355,3.6
10630,1072,1,78,100.0,0,31806,96.3,198648,158469,3.6
10640,1073,1,78,100.0,0,31588,96.3,198663,158570,3.6
10650,1074,1,78,100.0,0,31365,96.3,198769,158701,3.6
10660,1075,1,78,100.0,0,31127,96.3,198834,158806,3.6
10670,1076,1,78,100.0,0,30889,96.3,198859,158885,3.6
10680,1077,1,78,100.0,0,30637,96.3,198896,159000,3.6
10690,1078,1,78,100.0,0,30388,96.3,198958,159057,3.6
10700,1079,1,78,100.0,0,30142,96.3,199006,159209,3.6
10710,1080,1,78,100.0,0,29896,96.3,199060,159296,3.6
10720,1081,1,78,100.0,0,29658,96.3,199169,159451,3.6
10730,1082,1,78,100.0,0,29428,96.3,199241,159519,3.6
10740,1083,1,78,100.0,0,29206,96.3,199265,159621,3.6
10750,1084,1,78,100.0,0,28998,96.3,199323,159712,3.6
10760,1085,1,78,100.0,0,28788,96.3,199375,159834,3.6
10770,1086,1,78,100.0,0,28592,96.3,199397,159937,3.6
10780,1087,1,78,100.0,0,28403,96.3,199474,160023,3.6
10790,1088,1,78,100.0,0,28219,96.3,199505,160111,3.6
10800,1089,1,78,100.0,0,28044,96.3,199511,160115,3.6
10810,1090,1,78,100.0,0,27872,96.3,199492,160061,3.6
10820,1091,1,78,100.0,0,27709,96.3,199442,159892,3.6
10830,1092,1,78,100.0,0,27564,96.3,199256,159542,3.6
10840,1093,1,78,100.0,0,27432,96.3,199023,159102,3.6
10850,1094,1,78,100.0,0,27332,96.3,198791,158626,3.6
10860,1095,1,78,100.0,0,27272,96.3,198506,158094,3.6
10870,1096,1,78,100.0,0,27277,96.3,198203,157508,3.6
10880,1097,1,78,100.0,0,27360,96.3,197875,156892,3.6
10890,1098,1,78,100.0,0,27545,96.3,197517,156261,3.6
10900,1099,1,78,100.0,0,27846,96.3,197210,155766,3.6
10910,1100,1,78,100.0,0,28272,96.3,197005,155454,3.6
10920,1101,1,78,100.0,0,28834,96.3,196838,155146,3.6
10930,1102,1,78,100.0,0,29528,96.3,196731,154926,3.6
10940,1103,1,78,100.0,0,30350,96.3,196617,154748,3.6
10950,1104,1,78,100.0,0,31277,96.3,196537,154609,3.6
10960,1105,1,78,100.0,0,32286,96.3,196485,154534,3.6
10970,1106,1,78,100.0,0,33347,96.3,196456,154434,3.6
10980,1107,1,78,100.0,0,34430,96.3,196378,154330,3.6
10990,1108,1,78,100.0,0,35498,96.3,196336,154278,3.6
11000,1109,1,78,100.0,0,36518,96.3,196338,154243,3.6
11010,1110,1,78,100.0,0,37467,96.3,196349,154259,3.6
11020,1111,1,78,100.0,0,38318,96.3,196318,154307,3.6
11030,1112,1,78,100.0,0,39059,96.3,196442,154423,3.6
11040,1113,1,78,100.0,0,39670,96.3,196507,154586,3.6
11050,1114,1,78,100.0,0,40145,96.3,196582,154740,3.6
11060,1115,1,78,100.0,0,40488,96.3,196667,154918,3.6
11070,1116,1,78,100.0,0,40689,96.3,196735,155082,3.6
11080,1117,1,78,100.0,0,40753,96.3,196803,155220,3.6
11090,1118,1,78,100.0,8,40693,96.3,196919,155376,3.6
11100,1119,1,78,100.0,0,40528,96.3,196966,155500,3.6
11110,1120,1,78,100.0,0,40262,96.3,197062,155633,3.6
11120,1121,1,78,100.0,0,39909,96.3,197111,155709,3.6
11130,1122,1,78,100.0,0,39489,96.3,197149,155803,3.6
11140,1123,1,78,100.0,0,39024,96.3,197200,155895,3.6
11150,1124,1,78,100.0,0,38529,96.3,197222,155987,3.6
11160,1125,1,78,100.0,0,38018,96.3,197288,156072,3.6
11170,1126,1,78,100.0,0,37505,96.3,197311,156167,3.6
11180,1127,1,78,100.0,0,37011,96.3,197384,156222,3.6
11190,1128,1,78,100.0,0,36539,96.3,197400,156298,3.6
11200,1129,1,78,100.0,0,36099,96.3,197439,156365,3.6
11210,1130,1,78,100.0,0,35697,96.3,197479,156458,3.6
11220,1131,1,78,100.0,0,35337,96.3,197513,156573,3.6
11230,1132,1,78,100.0,0,35015,96.3,197546,156639,3.6
11240,1133,1,78,100.0,0,34726,96.3,197637,156759,3.6
11250,1134,1,78,100.0,0,34475,96.3,197689,156875,3.6
11260,1135,1,78,100.0,0,34253,96.3,197740,157008,3.6
11270,1136,1,78,100.0,0,34054,96.3,197809,157122,3.6
11280,1137,1,78,100.0,0,33865,96.3,197842,157217,3.6
11290,1138,1,78,100.0,0,33689,96.3,197942,157370,3.6
11300,1139,1,78,100.0,0,33508,96.3,198003,157500,3.6
11310,1140,1,78,100.0,0,33322,96.3,198061,157585,3.6
11320,1141,1,78,100.0,0,33129,96.3,198094,157690,3.6
11330,1142,1,78,100.0,0,32926,96.3,198186,157839,3.6
11340,1143,1,78,100.0,0,32707,96.3,198239,157950,3.6
11350,1144,1,78,100.0,0,32473,96.3,198311,158097,3.6
11360,1145,1,78,100.0,0,32222,96.3,198377,158204,3.6
11370,1146,1,78,100.0,0,31960,96.3,198449,158353,3.6
11380,1147,1,78,100.0,0,31683,96.3,198530,158445,3.6
11390,1148,1,78,100.0,0,31404,96.3,198550,158563,3.6
11400,1149,1,78,100.0,0,31109,96.3,198639,158670,3.6
11410,1150,1,78,100.0,0,30808,96.3,198711,158803,3.6
11420,1151,1,78,100.0,0,30512,96.1,198757,158875,3.6
11430,1152,1,78,100.0,0,30214,96.1,198834,158991,3.6
11440,1153,1,78,100.0,0,29920,96.1,198888,159106,3.6
11450,1154,1,78,100.0,0,29635,96.1,198956,159203,3.6
11460,1155,1,78,100.0,0,29360,96.1,198991,159322,3.6
11470,1156,1,78,100.0,0,29093,96.1,199061,159427,3.6
11480,1157,1,78,100.0,0,28837,96.1,199118,159530,3.6
11490,1158,1,78,100.0,0,28589,96.1,199195,159662,3.6
11500,1159,1,78,100.0,0,28351,96.1,199252,159763,3.6
11510,1160,1,78,100.0,0,28118,96.1,199298,159862,3.6
11520,1161,1,78,100.0,0,27899,96.1,199296,159883,3.6
11530,1162,1,78,100.0,0,27685,96.1,199327,159873,3.6
11540,1163,1,78,100.0,0,27486,96.1,199285,159724,3.6
11550,1164,1,78,100.0,0,27296,96.1,199163,159433,3.6
11560,1165,1,78,100.0,0,27122,96.1,198970,158995,3.6
11570,1166,1,78,100.0,0,26983,96.1,198683,158476,3.6
11580,1167,1,78,100.0,0,26891,96.1,198425,157936,3.6
11590,1168,1,78,100.0,0,26861,96.1,198037,157268,3.6
11600,1169,1,78,100.0,0,26919,96.1,197698,156598,3.6
11610,1170,1,78,100.0,0,27092,96.1,197295,155931,3.6
11620,1171,1,78,100.0,0,27397,96.1,197006,155447,3.6
11630,1172,1,78,100.0,0,27854,96.1,196775,155055,3.6
11640,1173,1,78,100.0,0,28476,96.1,196579,154751,3.6
11650,1174,1,78,100.0,0,29262,96.1,196459,154513,3.6
11660,1175,1,78,100.0,0,30198,96.1,196336,154324,3.6
11670,1176,1,78,100.0,0,31269,96.1,196286,154191,3.6
11680,1177,1,78,100.0,0,32445,96.1,196227,154065,3.6
11690,1178,1,78,100.0,0,33694,96.1,196170,153967,3.6
11700,1179,1,78,100.0,0,34974,96.1,196118,153905,3.6
11710,1180,1,78,100.0,0,36243,96.1,196075,153813,3.6
11720,1181,1,78,100.0,0,37473,96.1,196068,153802,3.6
11730,1182,1,78,100.0,0,38611,96.1,196062,153815,3.6
11740,1183,1,78,100.0,0,39640,96.1,196058,153831,3.6
11750,1184,1,78,100.0,0,40538,96.1,196142,153929,3.6
11760,1185,1,78,100.0,0,41288,96.1,196187,154030,3.6
11770,1186,1,78,100.0,0,41879,96.1,196296,154212,3.6
11780,1187,1,78,100.0,0,42310,96.1,196421,154431,3.6
11790,1188,1,78,100.0,0,42575,96.1,196534,154627,3.6
11800,1189,1,78,100.0,0,42685,96.1,196666,154842,3.6
11810,1190,1,78,100.0,0,42644,96.1,196765,155026,3.6
11820,1191,1,78,100.0,8,42463,96.1,196855,155159,3.6
11830,1192,1,78,100.0,0,42163,96.1,196989,155330,3.6
11840,1193,1,78,100.0,0,41748,96.1,197006,155407,3.6
11850,1194,1,78,100.0,0,41251,96.1,197040,155515,3.6
11860,1195,1,78,100.0,0,40682,96.1,197083,155572,3.6
11870,1196,1,78,100.0,0,40074,96.1,197157,155640,3.6
11880,1197,1,78,100.0,0,39437,96.1,197182,155703,3.6
11890,1198,1,78,100.0,0,38799,96.1,197204,155760,3.6
11900,1199,1,78,100.0,0,38170,96.1,197233,155851,3.6
11910,1200,1,78,100.0,0,37571,96.1,197266,155905,3.6
11920,1201,1,78,100.0,0,37004,96.1,197299,155959,3.6
11930,1202,1,78,100.0,0,36484,96.1,197312,156011,3.6
11940,1203,1,78,100.0,0,36018,96.1,197384,156093,3.6
11950,1204,1,78,100.0,0,35605,96.1,197392,156123,3.6
11960,1205,1,78,100.0,0,35245,96.1,197432,156222,3.6
11970,1206,1,78,100.0,0,34940,96.1,197484,156305,3.6
11980,1207,1,78,100.0,0,34673,96.1,197486,156397,3.6
11990,1208,1,78,100.0,0,34449,96.1,197556,156479,3.6
12000,1209,1,78,100.0,0,34246,96.1,197637,156601,3.6
12010,1210,1,78,100.0,0,34060,96.1,197698,156693,3.6
12020,1211,1,78,100.0,0,33889,96.1,197746,156783,3.6
12030,1212,1,78,100.0,0,33729,96.1,197771,156906,3.6
12040,1213,1,78,100.0,0,33563,96.1,197815,157001,3.6
12050,1214,1,78,100.0,0,33390,96.1,197893,157122,3.6
12060,1215,1,78,100.0,0,33200,96.1,197944,157213,3.6
12070,1216,1,78,100.0,0,32987,96.1,198026,157329,3.6
12080,1217,1,78,100.0,0,32756,96.1,198052,157434,3.6
12090,1218,1,78,100.0,0,32507,96.1,198109,157532,3.6
12100,1219,1,78,100.0,0,32245,96.1,198141,157634,3.6
12110,1220,1,78,100.0,0,31960,96.1,198194,157739,3.6
12120,1221,1,78,100.0,0,31663,96.1,198249,157832,3.6
12130,1222,1,78,100.0,0,31358,96.1,198331,157922,3.6
12140,1223,1,78,100.0,0,31053,96.1,198286,157987,3.6
12150,1224,1,78,100.0,0,30746,96.1,198318,158071,3.6
12160,1225,1,78,100.0,0,30433,96.1,198380,158139,3.6
12170,1226,1,78,100.0,0,30136,96.1,198409,158235,3.6
12180,1227,1,78,100.0,0,29843,96.1,198451,158348,3.6
12190,1228,1,78,100.0,0,29561,96.1,198506,158446,3.6
12200,1229,1,78,100.0,0,29296,96.1,198533,158522,3.6
12210,1230,1,78,100.0,0,29035,96.1,198590,158632,3.6
12220,1231,1,78,100.0,0,28791,96.1,198601,158700,3.6
12230,1232,1,78,100.0,0,28558,96.1,198647,158791,3.6
12240,1233,1,78,100.0,0,28336,96.1,198600,158820,3.6
12250,1234,1,78,100.0,0,28124,96.1,198596,158780,3.6
12260,1235,1,78,100.0,0,27930,96.1,198525,158608,3.6
12270,1236,1,78,100.0,0,27747,96.1,198391,158263,3.6
12280,1237,1,78,100.0,0,27592,96.1,198197,157914,3.6
12290,1238,1,78,100.0,0,27466,96.1,197957,157397,3.6
12300,1239,1,78,100.0,0,27393,96.1,197631,156830,3.6
12310,1240,1,78,100.0,0,27396,96.1,197226,156117,3.6
12320,1241,1,78,100.0,0,27494,96.1,196836,155409,3.6
12330,1242,1,78,100.0,0,27709,96.1,196472,154822,3.6
12340,1243,1,78,100.0,0,28073,96.1,196224,154369,3.6
12350,1244,1,78,100.0,0,28604,96.1,195982,154047,3.6
12360,1245,1,78,100.0,0,29315,96.1,195848,153773,3.6
12370,1246,1,78,100.0,0,30200,96.1,195694,153544,3.6
12380,1247,1,78,100.0,0,31249,96.1,195603,153418,3.6
12390,1248,1,78,100.0,0,32439,96.1,195562,153262,3.6
12400,1249,1,78,100.0,0,33735,96.1,195440,153172,3.6
12410,1250,1,78,100.0,0,35102,96.1,195412,153084,3.6
12420,1251,1,78,100.0,0,36486,96.1,195410,153031,3.6
12430,1252,1,78,100.0,0,37850,96.1,195369,153005,3.6
12440,1253,1,78,100.0,0,39146,96.1,195384,153000,3.6
12450,1254,1,78,100.0,0,40343,96.1,195396,153043,3.6
12460,1255,1,78,100.0,0,41416,96.1,195445,153080,3.6
12470,1256,1,78,100.0,0,42328,96.1,195476,153190,3.6
12480,1257,1,78,100.0,0,43067,96.1,195547,153320,3.6
12490,1258,1,78,100.0,0,43631,96.1,195610,153474,3.6
12500,1259,1,78,100.0,0,44008,96.1,195723,153621,3.6
12510,1260,1,78,100.0,0,44210,96.1,195795,153800,3.6
12520,1261,1,78,100.0,0,44236,96.1,195863,153940,3.6
12530,1262,1,78,100.0,8,44116,96.1,195924,154068,3.6
12540,1263,1,78,100.0,0,43844,96.1,196010,154195,3.6
12550,1264,1,78,100.0,0,43449,96.1,196020,154308,3.6
12560,1265,1,78,100.0,0,42949,96.1,196075,154398,3.6
12570,1266,1,78,100.0,0,42381,96.1,196154,154506,3.6
12580,1267,1,78,100.0,0,41757,96.1,196203,154596,3.6
12590,1268,1,78,100.0,0,41095,96.1,196245,154645,3.6
12600,1269,1,78,100.0,0,40425,96.1,196281,154712,3.6
12610,1270,1,78,100.0,0,39753,96.1,196319,154803,3.6
12620,1271,1,78,100.0,0,39111,96.1,196349,154854,3.6
12630,1272,1,78,100.0,0,38503,96.1,196384,154940,3.6
12640,1273,1,78,100.0,0,37937,96.1,196382,155026,3.6
12650,1274,1,78,100.0,0,37413,96.1,196421,155086,3.6
12660,1275,1,78,100.0,0,36943,96.1,196480,155199,3.6
12670,1276,1,78,100.0,0,36528,96.1,196501,155275,3.6
12680,1277,1,78,100.0,0,36154,96.1,196572,155389,3.6
12690,1278,1,78,100.0,0,35824,96.1,196614,155474,3.6
12700,1279,1,78,100.0,0,35529,96.1,196675,155602,3.6
12710,1280,1,78,100.0,0,35265,96.1,196745,155750,3.6
12720,1281,1,78,100.0,0,35019,96.1,196820,155846,3.6
12730,1282,1,78,100.0,0,34778,96.1,196917,155981,3.6
12740,1283,1,78,100.0,0,34549,96.1,196953,156094,3.6
12750,1284,1,78,100.0,0,34306,96.1,197029,156222,3.6
12760,1285,1,78,100.0,0,34056,96.1,197121,156359,3.6
12770,1286,1,78,100.0,0,33786,96.1,197175,156461,3.6
12780,1287,1,78,100.0,0,33503,96.1,197241,156593,3.6
12790,1288,1,78,100.0,0,33199,96.1,197294,156674,3.6
12800,1289,1,78,100.0,0,32882,96.1,197346,156809,3.6
12810,1290,1,78,100.0,0,32550,96.1,197387,156872,3.6
12820,1291,1,78,100.0,0,32198,96.1,197438,157045,3.6
12830,1292,1,78,100.0,0,31832,96.1,197475,157129,3.6
12840,1293,1,78,100.0,0,31464,96.1,197532,157241,3.6
12850,1294,1,78,100.0,0,31095,96.1,197569,157334,3.6
12860,1295,1,78,100.0,0,30725,96.1,197666,157419,3.6
12870,1296,1,78,100.0,0,30360,96.1,197677,157530,3.6
12880,1297,1,78,100.0,0,30006,96.1,197750,157628,3.6
12890,1298,1,78,100.0,0,29658,96.1,197770,157719,3.6
12900,1299,1,78,100.0,0,29328,96.1,197821,157805,3.6
12910,1300,1,78,100.0,0,29010,96.1,197888,157907,3.6
12920,1301,1,78,100.0,0,28704,96.1,197876,157974,3.6
12930,1302,1,78,100.0,0,28411,96.1,197953,158099,3.6
12940,1303,1,78,100.0,0,28135,96.1,198039,158170,3.6
12950,1304,1,78,100.0,0,27866,96.1,198068,158287,3.6
12960,1305,1,78,100.0,0,27609,96.1,198118,158381,3.6
12970,1306,1,78,100.0,0,27364,96.1,198167,158454,3.6
12980,1307,1,78,100.0,0,27132,96.1,198213,158568,3.6
12990,1308,1,78,100.0,0,26906,96.1,198278,158671,3.6
13000,1309,1,78,100.0,0,26685,96.1,198334,158754,3.6
13010,1310,1,78,100.0,0,26471,96.1,198376,158831,3.6
13020,1311,1,78,100.0,0,26263,96.1,198461,158989,3.6
13030,1312,1,78,100.0,0,26060,96.1,198495,159063,3.6
13040,1313,1,78,100.0,0,25858,96.1,198545,159156,3.6
13050,1314,1,78,100.0,0,25655,96.1,198604,159260,3.6
13060,1315,1,78,100.0,0,25451,96.1,198651,159277,3.6
13070,1316,1,78,100.0,0,25240,96.1,198656,159332,3.6
13080,1317,1,78,100.0,0,25035,96.1,198608,159258,3.6
13090,1318,1,78,100.0,0,24837,96.1,198482,158980,3.6
13100,1319,1,78,100.0,0,24645,96.1,198329,158625,3.6
13110,1320,1,78,100.0,0,24479,96.1,198119,158187,3.6
13120,1321,1,78,100.0,0,24360,96.1,197809,157599,3.6
13130,1322,1,78,100.0,0,24301,96.1,197404,156879,3.6
13140,1323,1,78,100.0,0,24349,96.1,197003,156076,3.6
13150,1324,1,78,100.0,0,24526,96.1,196639,155444,3.6
13160,1325,1,78,100.0,0,24865,96.1,196361,154972,3.6
13170,1326,1,78,100.0,0,25401,96.1,196154,154555,3.6
13180,1327,1,78,100.0,0,26156,96.1,195977,154285,3.6
13190,1328,1,78,100.0,0,27122,96.1,195838,154024,3.6
13200,1329,1,78,100.0,0,28295,96.1,195700,153843,3.6
13210,1330,1,78,100.0,0,29656,96.1,195646,153720,3.6
13220,1331,1,78,100.0,0,31164,96.1,195577,153604,3.6
13230,1332,1,78,100.0,0,32781,96.1,195531,153505,3.6
13240,1333,1,78,100.0,0,34445,96.1,195496,153401,3.6
13250,1334,1,78,100.0,0,36107,96.1,195451,153355,3.6
13260,1335,1,78,100.0,0,37714,96.1,195418,153298,3.6
13270,1336,1,78,100.0,0,39222,96.1,195413,153266,3.6
13280,1337,1,78,100.0,0,40589,96.1,195424,153276,3.6
13290,1338,1,78,100.0,0,41787,96.1,195419,153335,3.6
13300,1339,1,78,100.0,0,42794,96.1,195494,153404,3.6
13310,1340,1,78,100.0,0,43609,96.1,195536,153520,3.6
13320,1341,1,78,100.0,0,44211,96.1,195644,153674,3.6
13330,1342,1,78,100.0,0,44613,96.1,195722,153810,3.6
13340,1343,1,78,100.0,0,44822,96.1,195761,153915,3.6
13350,1344,1,78,100.0,0,44850,96.1,195889,154075,3.6
13360,1345,1,78,100.0,8,44718,96.1,195905,154179,3.6
13370,1346,1,78,100.0,0,44439,96.1,195955,154298,3.6
13380,1347,1,78,100.0,0,44028,96.1,195998,154371,3.6
13390,1348,1,78,100.0,0,43518,96.1,196072,154427,3.6
13400,1349,1,78,100.0,0,42938,96.1,196113,154524,3.6
13410,1350,1,78,100.0,0,42307,96.1,196125,154568,3.6
13420,1351,1,78,100.0,0,41646,96.1,196156,154655,3.6
13430,1352,1,78,100.0,0,40978,96.1,196202,154682,3.6
13440,1353,1,78,100.0,0,40322,96.1,196188,154746,3.6
13450,1354,1,78,100.0,0,39692,96.1,196278,154842,3.6
13460,1355,1,78,100.0,0,39096,96.1,196306,154917,3.6
13470,1356,1,78,100.0,0,38555,96.1,196318,154989,3.6
13480,1357,1,78,100.0,0,38061,96.1,196395,155075,3.6
13490,1358,1,78,100.0,0,37616,96.1,196458,155192,3.6
13500,1359,1,78,100.0,0,37213,96.1,196563,155302,3.6
13510,1360,1,78,100.0,0,36857,96.1,196568,155363,3.6
13520,1361,1,78,100.0,0,36530,96.1,196640,155478,3.6
13530,1362,1,78,100.0,0,36229,96.1,196726,155606,3.6
13540,1363,1,78,100.0,0,35942,96.1,196795,155742,3.6
13550,1364,1,78,100.0,0,35661,96.1,196833,155827,3.6
13560,1365,1,78,100.0,0,35379,96.1,196906,155929,3.6
13570,1366,1,78,100.0,0,35089,96.1,197007,156034,3.6
13580,1367,1,78,100.0,0,34784,96.1,197070,156139,3.6
13590,1368,1,78,100.0,0,34456,96.1,197106,156228,3.6
13600,1369,1,78,100.0,0,34126,96.1,197186,156344,3.6
13610,1370,1,78,100.0,0,33767,96.1,197242,156436,3.6
13620,1371,1,78,100.0,0,33391,96.1,197294,156551,3.6
13630,1372,1,78,100.0,0,33000,96.1,197390,156684,3.6
13640,1373,1,78,100.0,0,32592,96.1,197471,156768,3.6
13650,1374,1,78,100.0,0,32183,96.1,197503,156880,3.6
13660,1375,1,78,100.0,0,31758,96.1,197565,157015,3.6
13670,1376,1,78,100.0,0,31323,96.1,197676,157111,3.6
13680,1377,1,78,100.0,0,30902,96.1,197680,157220,3.6
13690,1378,1,78,100.0,0,30472,96.1,197754,157338,3.6
13700,1379,1,78,100.0,0,30048,96.1,197804,157430,3.6
13710,1380,1,78,100.0,0,29637,96.1,197862,157513,3.6
13720,1381,1,78,100.0,0,29239,96.1,197941,157625,3.6
13730,1382,1,78,100.0,0,28841,96.1,197992,157701,3.6
13740,1383,1,78,100.0,0,28463,96.1,198003,157802,3.6
13750,1384,1,78,100.0,0,28099,96.1,198043,157916,3.6
13760,1385,1,78,100.0,0,27749,96.1,198113,157986,3.6
13770,1386,1,78,100.0,0,27405,96.1,198185,158084,3.6
13780,1387,1,78,100.0,0,27083,96.1,198203,158196,3.6
13790,1388,1,78,100.0,0,26774,96.1,198247,158258,3.6
13800,1389,1,78,100.0,0,26473,96.1,198281,158362,3.6
13810,1390,1,78,100.0,0,26178,96.1,198355,158459,3.6
13820,1391,1,78,100.0,0,25905,96.1,198376,158575,3.6
13830,1392,1,78,100.0,0,25631,96.1,198467,158654,3.6
13840,1393,1,78,100.0,0,25364,96.1,198531,158759,3.6
13850,1394,1,78,100.0,0,25111,96.1,198541,158848,3.6
13860,1395,1,78,100.0,0,24866,96.1,198619,158998,3.6
13870,1396,1,78,100.0,0,24620,96.1,198657,159050,3.6
13880,1397,1,78,100.0,0,24373,96.1,198680,159112,3.6
13890,1398,1,78,100.0,0,24133,96.1,198708,159129,3.6
13900,1399,1,78,100.0,0,23886,96.1,198643,159072,3.6
13910,1400,1,78,100.0,0,23645,96.1,198553,158859,3.6
13920,1401,1,78,100.0,0,23419,96.1,198391,158594,3.6
13930,1402,1,78,100.0,0,23231,96.1,198187,158206,3.6
13940,1403,1,78,100.0,0,23080,96.1,197960,157648,3.6
13950,1404,1,78,100.0,0,22991,96.1,197569,156909,3.6
13960,1405,1,78,100.0,0,23016,96.1,197161,156225,3.6
13970,1406,1,78,100.0,0,23172,96.1,196901,155747,3.6
13980,1407,1,78,100.0,0,23497,96.1,196711,155398,3.6
13990,1408,1,78,100.0,0,24023,96.1,196591,155081,3.6
14000,1409,1,78,100.0,0,24766,96.1,196425,154842,3.6
14010,1410,1,78,100.0,0,25719,96.1,196277,154637,3.6
14020,1411,1,78,100.0,0,26891,96.1,196205,154518,3.6
14030,1412,1,78,100.0,0,28244,96.1,196131,154355,3.6
14040,1413,1,78,100.0,0,29741,96.1,196019,154207,3.6
14050,1414,1,78,100.0,0,31337,96.1,195991,154151,3.6
14060,1415,1,78,100.0,0,32977,96.1,195941,154071,3.6
14070,1416,1,78,100.0,0,34608,96.1,195890,154014,3.6
14080,1417,1,78,100.0,0,36198,96.1,195862,153963,3.6
14090,1418,1,78,100.0,0,37684,96.1,195855,153934,3.6
14100,1419,1,78,100.0,0,39033,96.1,195861,153912,3.6
14110,1420,1,78,100.0,0,40212,96.1,195877,153967,3.6
14120,1421,1,78,100.0,0,41214,96.1,195888,154006,3.6
14130,1422,1,78,100.0,0,42021,96.1,195968,154116,3.6
14140,1423,1,78,100.0,0,42625,96.1,196037,154230,3.6
14150,1424,1,78,100.0,0,43032,96.1,196086,154367,3.6
14160,1425,1,78,100.0,0,43251,96.1,196158,154481,3.6
14170,1426,1,78,100.0,0,43296,96.1,196234,154605,3.6
14180,1427,1,78,100.0,8,43191,96.1,196277,154691,3.6
14190,1428,1,78,100.0,0,42934,96.1,196357,154803,3.6
14200,1429,1,78,100.0,0,42566,96.1,196394,154883,3.6
14210,1430,1,78,100.0,0,42094,96.1,196440,154975,3.6
14220,1431,1,78,100.0,0,41557,96.1,196482,155016,3.6
14230,1432,1,78,100.0,0,40963,96.1,196511,155058,3.6
14240,1433,1,78,100.0,0,40336,96.1,196527,155088,3.6
14250,1434,1,78,100.0,0,39699,96.1,196574,155168,3.6
14260,1435,1,78,100.0,0,39068,96.1,196590,155208,3.6
14270,1436,1,78,100.0,0,38452,96.1,196613,155243,3.6
14280,1437,1,78,100.0,0,37866,96.1,196623,155315,3.6
14290,1438,1,78,100.0,0,37335,96.1,196694,155378,3.6
14300,1439,1,78,100.0,0,36850,96.1,196721,155433,3.6
14310,1440,1,78,100.0,0,36421,96.1,196737,155531,3.6
14320,1441,1,78,100.0,0,36047,96.1,196810,155608,3.6
14330,1442,1,78,100.0,0,35704,96.1,196884,155705,3.6
14340,1443,1,78,100.0,0,35400,96.1,196937,155804,3.6
14350,1444,1,78,100.0,0,35136,96.1,196949,155879,3.6
14360,1445,1,78,100.0,0,34896,96.1,197022,156002,3.6
14370,1446,1,78,100.0,0,34663,96.1,197088,156158,3.6
14380,1447,1,78,100.0,0,34437,96.1,197155,156245,3.6
14390,1448,1,78,100.0,0,34203,96.1,197231,156380,3.6
14400,1449,1,78,100.0,0,33959,96.1,197295,156485,3.6
14410,1450,1,78,100.0,0,33689,96.1,197354,156575,3.6
14420,1451,1,78,100.0,0,33394,96.1,197429,156720,3.6
14430,1452,1,78,100.0,0,33081,96.1,197497,156837,3.6
14440,1453,1,78,100.0,0,32734,96.1,197533,156950,3.6
14450,1454,1,78,100.0,0,32360,96.1,197659,157083,3.6
14460,1455,1,78,100.0,0,31969,96.1,197678,157198,3.6
14470,1456,1,78,100.0,0,31551,96.1,197715,157309,3.6
14480,1457,1,78,100.0,0,31106,96.1,197809,157399,3.6
14490,1458,1,78,100.0,0,30651,96.1,197879,157529,3.6
14500,1459,1,78,100.0,0,30187,96.1,197930,157650,3.6
14510,1460,1,78,100.0,0,29704,96.1,198021,157755,3.6
14520,1461,1,78,100.0,0,29236,96.1,198068,157840,3.6
14530,1462,1,78,100.0,0,28767,96.1,198111,157943,3.6
14540,1463,1,78,100.0,0,28305,96.1,198166,158053,3.6
14550,1464,1,78,100.0,0,27849,96.1,198178,158129,3.6
14560,1465,1,78,100.0,0,27401,96.1,198240,158242,3.6
14570,1466,1,78,100.0,0,26977,96.1,198309,158327,3.6
14580,1467,1,78,100.0,0,26569,96.1,198351,158458,3.6
14590,1468,1,78,100.0,0,26185,96.1,198416,158508,3.6
14600,1469,1,78,100.0,0,25809,96.1,198485,158634,3.6
14610,1470,1,78,100.0,0,25449,96.1,198515,158726,3.6
14620,1471,1,78,100.0,0,25105,96.1,198600,158811,3.6
14630,1472,1,78,100.0,0,24786,96.1,198630,158922,3.6
14640,1473,1,78,100.0,0,24483,96.1,198675,158992,3.6
14650,1474,1,78,100.0,0,24189,96.1,198742,159096,3.6
14660,1475,1,78,100.0,0,23910,96.1,198769,159215,3.6
14670,1476,1,78,100.0,0,23632,96.1,198817,159275,3.6
14680,1477,1,78,100.0,0,23361,96.1,198886,159386,3.6
14690,1478,1,78,100.0,0,23098,96.1,198931,159465,3.6
14700,1479,1,78,100.0,0,22844,96.1,198918,159491,3.6
14710,1480,1,78,100.0,0,22589,96.1,198909,159428,3.6
14720,1481,1,78,100.0,0,22350,96.3,198803,159232,3.6
14730,1482,1,78,100.0,0,22120,96.3,198762,158958,3.6
14740,1483,1,78,100.0,0,21916,96.3,198507,158541,3.6
14750,1484,1,78,100.0,0,21755,96.3,198189,157872,3.6
14760,1485,1,78,100.0,0,21680,96.3,197840,157270,3.6
14770,1486,1,78,100.0,0,21719,96.3,197586,156804,3.6
14780,1487,1,78,100.0,0,21906,96.3,197409,156447,3.6
14790,1488,1,78,100.0,0,22276,96.3,197227,156201,3.6
14800,1489,1,78,100.0,0,22857,96.3,197097,155922,3.6
14810,1490,1,78,100.0,0,23659,96.3,196993,155736,3.6
14820,1491,1,78,100.0,0,24681,96.3,196921,155592,3.6
14830,1492,1,78,100.0,0,25898,96.3,196831,155454,3.6
14840,1493,1,78,100.0,0,27286,96.3,196807,155391,3.6
14850,1494,1,78,100.0,0,28801,96.3,196783,155308,3.6
14860,1495,1,78,100.0,0,30392,96.3,196708,155233,3.6
14870,1496,1,78,100.0,0,32024,96.3,196667,155142,3.6
14880,1497,1,78,100.0,0,33627,96.3,196597,155102,3.6
14890,1498,1,78,100.0,0,35147,96.3,196589,155058,3.6
14900,1499,1,78,100.0,0,36556,96.3,196593,155068,3.6
14910,1500,1,78,100.0,0,37819,96.3,196613,155072,3.6
14920,1501,1,78,100.0,0,38915,96.3,196638,155084,3.6
14930,1502,1,78,100.0,0,39836,96.3,196651,155168,3.6
14940,1503,1,78,100.0,0,40563,96.3,196701,155269,3.6
14950,1504,1,78,100.0,0,41094,96.3,196732,155341,3.6
14960,1505,1,78,100.0,0,41429,96.3,196781,155473,3.6
14970,1506,1,78,100.0,0,41585,96.3,196834,155584,3.6
14980,1507,1,78,100.0,0,41588,96.3,196923,155664,3.6
14990,1508,1,78,100.0,8,41438,96.3,196967,155769,3.6
15000,1509,1,78,100.0,0,41161,96.3,197041,155884,3.6
15010,1510,1,78,100.0,0,40785,96.3,197066,155923,3.6
15020,1511,1,78,100.0,0,40317,96.3,197141,156017,3.6
15030,1512,1,78,100.0,0,39784,96.3,197111,156034,3.6
15040,1513,1,78,100.0,0,39214,96.3,197180,156091,3.6
15050,1514,1,78,100.0,0,38606,96.3,197170,156122,3.6
15060,1515,1,78,100.0,0,37996,96.3,197217,156153,3.6
15070,1516,1,78,100.0,0,37402,96.3,197232,156178,3.6
15080,1517,1,78,100.0,0,36834,96.3,197257,156245,3.6
15090,1518,1,78,100.0,0,36301,96.3,197309,156312,3.6
15100,1519,1,78,100.0,0,35812,96.3,197299,156363,3.6
15110,1520,1,78,100.0,0,35367,96.3,197366,156406,3.6
15120,1521,1,78,100.0,0,34967,96.3,197393,156462,3.6
15130,1522,1,78,100.0,0,34621,96.3,197430,156528,3.6
15140,1523,1,78,100.0,0,34319,96.3,197475,156627,3.6
15150,1524,1,78,100.0,0,34044,96.3,197506,156677,3.6
15160,1525,1,78,100.0,0,33806,96.3,197587,156767,3.6
15170,1526,1,78,100.0,0,33575,96.3,197638,156862,3.6
15180,1527,1,78,100.0,0,33372,96.3,197700,156947,3.6
15190,1528,1,78,100.0,0,33149,96.3,197741,157060,3.6
15200,1529,1,78,100.0,0,32917,96.3,197830,157147,3.6
15210,1530,1,78,100.0,0,32664,96.3,197875,157206,3.6
15220,1531,1,78,100.0,0,32401,96.3,197977,157309,3.6
15230,1532,1,78,100.0,0,32109,96.3,197988,157449,3.6
15240,1533,1,78,100.0,0,31797,96.3,198067,157535,3.6
15250,1534,1,78,100.0,0,31455,96.3,198152,157630,3.6
15260,1535,1,78,100.0,0,31084,96.3,198207,157749,3.6
15270,1536,1,78,100.0,0,30673,96.3,198263,157830,3.6
15280,1537,1,78,100.0,0,30252,96.3,198314,157956,3.6
15290,1538,1,78,100.0,0,29810,96.3,198398,158037,3.6
15300,1539,1,78,100.0,0,29357,96.3,198441,158147,3.6
15310,1540,1,78,100.0,0,28884,96.3,198505,158285,3.6
15320,1541,1,78,100.0,0,28409,96.3,198472,158404,3.6
15330,1542,1,78,100.0,0,27932,96.3,198626,158452,3.6
15340,1543,1,78,100.0,0,27455,96.3,198655,158552,3.6
15350,1544,1,78,100.0,0,26985,96.3,198697,158638,3.6
15360,1545,1,78,100.0,0,26514,96.3,198737,158699,3.6
15370,1546,1,78,100.0,0,26061,96.3,198809,158818,3.6
15380,1547,1,78,100.0,0,25617,96.3,198857,158917,3.6
15390,1548,1,78,100.0,0,25191,96.3,198859,158959,3.6
15400,1549,1,78,100.0,0,24793,96.3,198926,159055,3.6
15410,1550,1,78,100.0,0,24403,96.3,198984,159170,3.6
15420,1551,1,78,100.0,0,24032,96.3,198893,159229,3.6
15430,1552,1,78,100.0,0,23690,96.3,199070,159330,3.6
15440,1553,1,78,100.0,0,23366,96.3,199070,159397,3.6
15450,1554,1,78,100.0,0,23052,96.3,199095,159478,3.6
15460,1555,1,78,100.0,0,22746,96.3,199176,159591,3.6
15470,1556,1,78,100.0,0,22450,96.3,199197,159683,3.6
15480,1557,1,78,100.0,0,22163,96.3,199244,159767,3.6
15490,1558,1,78,100.0,0,21885,96.3,199274,159812,3.6
15500,1559,1,78,100.0,0,21606,96.3,199265,159828,3.6
15510,1560,1,78,100.0,0,21347,96.3,199265,159740,3.6
15520,1561,1,78,100.0,0,21107,96.3,199071,159518,3.6
15530,1562,1,78,100.0,0,20877,96.3,199014,159184,3.6
15540,1563,1,78,100.0,0,20686,96.3,198716,158607,3.6
15550,1564,1,78,100.0,0,20563,96.3,198416,158036,3.6
15560,1565,1,78,100.0,0,20529,96.3,198182,157636,3.6
15570,1566,1,78,100.0,0,20624,96.3,198032,157278,3.6
15580,1567,1,78,100.0,0,20887,96.3,197888,157029,3.6
15590,1568,1,78,100.0,0,21368,96.3,197750,156760,3.6
15600,1569,1,78,100.0,0,22068,96.3,197652,156571,3.6
15610,1570,1,78,100.0,0,22988,96.3,197545,156421,3.6
15620,1571,1,78,100.0,0,24119,96.3,197449,156273,3.6
15630,1572,1,78,100.0,0,25442,96.3,197385,156167,3.6
15640,1573,1,78,100.0,0,26918,96.3,197340,156075,3.6
15650,1574,1,78,100.0,0,28508,96.3,197304,156012,3.6
15660,1575,1,78,100.0,0,30153,96.3,197292,155993,3.6
15670,1576,1,78,100.0,0,31804,96.3,197262,155912,3.6
15680,1577,1,78,100.0,0,33400,96.3,197228,155909,3.6
15690,1578,1,78,100.0,0,34913,96.3,197231,155865,3.6
15700,1579,1,78,100.0,0,36299,96.3,197251,155892,3.6
15710,1580,1,78,100.0,0,37518,96.3,197257,155913,3.6
15720,1581,1,78,100.0,0,38569,96.3,197287,155948,3.6
15730,1582,1,78,100.0,0,39409,96.3,197292,155990,3.6
15740,1583,1,78,100.0,0,40049,96.3,197366,156089,3.6
15750,1584,1,78,100.0,0,40507,96.3,197411,156169,3.6
15760,1585,1,78,100.0,0,40773,96.3,197423,156261,3.6
15770,1586,1,78,100.0,0,40856,96.3,197467,156359,3.6
15780,1587,1,78,100.0,8,40775,96.3,197491,156440,3.6
15790,1588,1,78,100.0,0,40562,96.3,197503,156471,3.6
15800,1589,1,78,100.0,0,40235,96.3,197546,156550,3.6
15810,1590,1,78,100.0,0,39806,96.3,197562,156580,3.6
15820,1591,1,78,100.0,0,39303,96.3,197557,156644,3.6
15830,1592,1,78,100.0,0,38757,96.3,197592,156661,3.6
15840,1593,1,78,100.0,0,38189,96.3,197591,156702,3.6
15850,1594,1,78,100.0,0,37599,96.3,197643,156735,3.6
15860,1595,1,78,100.0,0,37018,96.3,197657,156766,3.6
15870,1596,1,78,100.0,0,36476,96.3,197699,156811,3.6
15880,1597,1,78,100.0,0,35964,96.3,197738,156853,3.6
15890,1598,1,78,100.0,0,35491,96.3,197750,156900,3.6
15900,1599,1,78,100.0,0,35069,96.3,197762,156985,3.6
15910,1600,1,78,100.0,0,34687,96.3,197830,157033,3.6
15920,1601,1,78,100.0,0,34356,96.3,197829,157090,3.6
15930,1602,1,78,100.0,0,34076,96.3,197905,157163,3.6
15940,1603,1,78,100.0,0,33817,96.3,197930,157223,3.6
15950,1604,1,78,100.0,0,33587,96.3,197981,157285,3.6
15960,1605,1,78,100.0,0,33378,96.3,198006,157379,3.6
15970,1606,1,78,100.0,0,33179,96.3,198036,157459,3.6
15980,1607,1,78,100.0,0,32979,96.3,198065,157531,3.6
15990,1608,1,78,100.0,0,32756,96.3,198113,157645,3.6
16000,1609,1,78,100.0,0,32533,96.3,198158,157730,3.6
16010,1610,1,78,100.0,0,32309,96.3,198196,157800,3.6
16020,1611,1,78,100.0,0,32042,96.3,198235,157918,3.6
16030,1612,1,78,100.0,0,31752,96.3,198308,158011,3.6
16040,1613,1,78,100.0,0,31451,96.3,198388,158121,3.6
16050,1614,1,78,100.0,0,31105,96.3,198454,158211,3.6
16060,1615,1,78,100.0,0,30737,96.3,198482,158303,3.6
16070,1616,1,78,100.0,0,30357,96.3,198530,158388,3.6
16080,1617,1,78,100.0,0,29943,96.3,198654,158509,3.6
16090,1618,1,78,100.0,0,29506,96.3,198719,158650,3.6
16100,1619,1,78,100.0,0,29067,96.3,198807,158728,3.6
16110,1620,1,78,100.0,0,28616,96.3,198851,158824,3.6
16120,1621,1,78,100.0,0,28154,96.3,198880,158918,3.6
16130,1622,1,78,100.0,0,27689,96.3,198962,158990,3.6
16140,1623,1,78,100.0,0,27213,96.3,198973,159095,3.6
16150,1624,1,78,100.0,0,26735,96.3,199005,159190,3.6
16160,1625,1,78,100.0,0,26256,96.3,199029,159236,3.6
16170,1626,1,78,100.0,0,25786,96.3,199071,159338,3.6
16180,1627,1,78,100.0,0,25337,96.3,199081,159376,3.6
16190,1628,1,78,100.0,0,24899,96.3,199091,159457,3.6
16200,1629,1,78,100.0,0,24481,96.3,199152,159549,3.6
16210,1630,1,78,100.0,0,24073,96.3,199191,159623,3.6
16220,1631,1,78,100.0,0,23675,96.3,199235,159712,3.6
16230,1632,1,78,100.0,0,23310,96.3,199282,159809,3.6
16240,1633,1,78,100.0,0,22977,96.3,199358,159892,3.6
16250,1634,1,78,100.0,0,22643,96.3,199426,160020,3.6
16260,1635,1,78,100.0,0,22342,96.3,199480,160114,3.6
16270,1636,1,78,100.0,0,22040,96.3,199529,160207,3.6
16280,1637,1,78,100.0,0,21760,96.3,199611,160262,3.6
16290,1638,1,78,100.0,0,21480,96.3,199596,160301,3.6
16300,1639,1,78,100.0,0,21199,96.3,199590,160263,3.6
16310,1640,1,78,100.0,0,20918,96.3,199475,160111,3.6
16320,1641,1,78,100.0,0,20658,96.3,199368,159906,3.6
16330,1642,1,78,100.0,0,20410,96.3,199125,159334,3.6
16340,1643,1,78,100.0,0,20217,96.3,198838,158812,3.6
16350,1644,1,78,100.0,0,20102,96.3,198642,158421,3.6
16360,1645,1,78,100.0,0,20121,96.3,198452,158031,3.6
16370,1646,1,77,100.0,0,20309,96.3,198261,157716,3.6
16380,1647,1,77,100.0,0,20699,96.3,198132,157468,3.6
16390,1648,1,77,100.0,0,21325,96.3,198010,157256,3.6
16400,1649,1,77,100.0,0,22201,96.3,197935,157077,3.6
16410,1650,1,77,100.0,0,23315,96.3,197845,156934,3.6
16420,1651,1,77,100.0,0,24668,96.3,197748,156803,3.6
16430,1652,1,77,100.0,0,26183,96.3,197682,156690,3.6
16440,1653,1,77,100.0,0,27849,96.3,197689,156643,3.6
16450,1654,1,77,100.0,0,29611,96.3,197659,156567,3.6
16460,1655,1,77,100.0,0,31414,96.3,197615,156538,3.6
16470,1656,1,77,100.0,0,33189,96.3,197586,156497,3.6
16480,1657,1,77,100.0,0,34890,96.3,197595,156480,3.6
16490,1658,1,77,100.0,0,36484,96.3,197557,156453,3.6
16500,1659,1,77,100.0,0,37922,96.3,197560,156447,3.6
16510,1660,1,77,100.0,0,39180,96.3,197546,156461,3.6
16520,1661,1,77,100.0,0,40235,96.3,197577,156485,3.6
16530,1662,1,77,100.0,0,41086,96.3,197587,156541,3.6
16540,1663,1,77,100.0,0,41720,96.3,197648,156655,3.6
16550,1664,1,77,100.0,0,42124,96.3,197699,156759,3.6
16560,1665,1,77,100.0,0,42345,96.3,197743,156837,3.6
16570,1666,1,77,100.0,0,42381,96.3,197791,156932,3.6
16580,1667,1,77,100.0,8,42243,96.3,197800,156998,3.6
16590,1668,1,77,100.0,0,41978,96.3,197818,157047,3.6
16600,1669,1,77,100.0,0,41596,96.3,197875,157113,3.6
16610,1670,1,77,100.0,0,41108,96.3,197888,157133,3.6
16620,1671,1,77,100.0,0,40537,96.3,197933,157200,3.6
16630,1672,1,77,100.0,0,39931,96.3,197947,157209,3.6
16640,1673,1,77,100.0,0,39311,96.3,197940,157249,3.6
16650,1674,1,77,100.0,0,38677,96.3,197961,157263,3.6
16660,1675,1,77,100.0,0,38066,96.3,197983,157347,3.6
16670,1676,1,77,100.0,0,37475,96.3,197997,157332,3.6
16680,1677,1,77,100.0,0,36931,96.3,198044,157368,3.6
16690,1678,1,77,100.0,0,36419,96.3,198045,157453,3.6
16700,1679,1,77,100.0,0,35966,96.3,198113,157514,3.6
16710,1680,1,77,100.0,0,35557,96.3,198089,157545,3.6
16720,1681,1,77,100.0,0,35207,96.3,198154,157609,3.6
16730,1682,1,77,100.0,0,34903,96.3,198161,157672,3.6
16740,1683,1,77,100.0,0,34634,96.3,198213,157760,3.6
16750,1684,1,77,100.0,0,34399,96.3,198247,157821,3.6
16760,1685,1,77,100.0,0,34163,96.3,198305,157889,3.6
16770,1686,1,77,100.0,0,33927,96.3,198354,157966,3.6
16780,1687,1,77,100.0,0,33701,96.3,198442,158050,3.6
16790,1688,1,77,100.0,0,33451,96.3,198483,158137,3.6
16800,1689,1,77,100.0,0,33176,96.3,198556,158235,3.6
16810,1690,1,77,100.0,0,32875,96.3,198628,158318,3.6
16820,1691,1,77,100.0,0,32538,96.3,198653,158371,3.6
16830,1692,1,77,100.0,0,32174,96.3,198731,158478,3.6
16840,1693,1,77,100.0,0,31773,96.3,198778,158534,3.6
16850,1694,1,77,100.0,0,31346,96.3,198853,158640,3.6
16860,1695,1,77,100.0,0,30893,96.3,198844,158700,3.6
16870,1696,1,77,100.0,0,30402,96.3,198886,158746,3.6
16880,1697,1,77,100.0,0,29898,96.3,198950,158834,3.6
16890,1698,1,77,100.0,0,29391,96.3,198998,158954,3.6
16900,1699,1,77,100.0,0,28870,96.3,199049,159001,3.6
16910,1700,1,77,100.0,0,28348,96.3,199040,159060,3.6
16920,1701,1,77,100.0,0,27825,96.3,199097,159159,3.6
16930,1702,1,77,100.0,0,27312,96.3,199165,159251,3.6
16940,1703,1,77,100.0,0,26822,96.3,199206,159316,3.6
16950,1704,1,77,100.0,0,26355,96.3,199237,159423,3.6
16960,1705,1,77,100.0,0,25900,96.3,199278,159482,3.6
16970,1706,1,77,100.0,0,25469,96.3,199366,159596,3.6
16980,1707,1,77,100.0,0,25048,96.3,199402,159679,3.6
16990,1708,1,77,100.0,0,24640,96.3,199446,159753,3.6
17000,1709,1,77,100.0,0,24242,96.3,199479,159792,3.6
17010,1710,1,77,100.0,0,23856,96.3,199571,159935,3.6
17020,1711,1,77,100.0,0,23470,96.3,199591,159986,3.6
17030,1712,1,77,100.0,0,23095,96.3,199644,160084,3.6
17040,1713,1,77,100.0,0,22719,96.3,199721,160162,3.6
17050,1714,1,77,100.0,0,22356,96.3,199727,160254,3.6
17060,1715,1,77,100.0,0,21991,96.3,199765,160311,3.6
17070,1716,1,77,100.0,0,21626,96.3,199767,160393,3.6
17080,1717,1,77,100.0,0,21260,96.3,199769,160428,3.6
17090,1718,1,77,100.0,0,20894,96.3,199736,160402,3.6
17100,1719,1,77,100.0,0,20527,96.3,199723,160341,3.6
17110,1720,1,77,100.0,0,20185,96.3,199604,160209,3.6
17120,1721,1,77,100.0,0,19868,96.3,199435,159867,3.6
17130,1722,1,77,100.0,0,19601,96.3,199175,159355,3.6
17140,1723,1,77,100.0,0,19409,96.3,198945,158892,3.6
17150,1724,1,77,100.0,0,19344,96.3,198712,158464,3.6
17160,1725,1,77,100.0,0,19443,96.3,198524,158094,3.6
17170,1726,1,77,100.0,0,19734,96.3,198371,157823,3.6
17180,1727,1,77,100.0,0,20266,96.3,198242,157578,3.6
17190,1728,1,77,100.0,0,21079,96.3,198168,157378,3.6
17200,1729,1,77,100.0,0,22160,96.3,198069,157210,3.6
17210,1730,1,77,100.0,0,23499,96.3,197948,157048,3.6
17220,1731,1,77,100.0,0,25071,96.3,197928,156947,3.6
17230,1732,1,77,100.0,0,26826,96.3,197856,156888,3.6
17240,1733,1,77,100.0,0,28727,96.3,197816,156775,3.6
17250,1734,1,77,100.0,0,30711,96.3,197744,156725,3.6
17260,1735,1,77,100.0,0,32703,96.3,197684,156652,3.6
17270,1736,1,77,100.0,0,34663,96.3,197704,156643,3.6
17280,1737,1,77,100.0,0,36527,96.3,197694,156619,3.6
17290,1738,1,77,100.0,0,38241,96.3,197678,156616,3.6
17300,1739,1,77,100.0,0,39779,96.3,197721,156633,3.6
17310,1740,1,77,100.0,0,41088,96.3,197734,156668,3.6
17320,1741,1,77,100.0,0,42178,96.3,197746,156711,3.6
17330,1742,1,77,100.0,0,43036,96.3,197769,156773,3.6
17340,1743,1,77,100.0,0,43635,96.3,197849,156902,3.6
17350,1744,1,77,100.0,0,44014,96.3,197889,156972,3.6
17360,1745,1,77,100.0,0,44185,96.3,197913,157050,3.6
17370,1746,1,77,100.0,0,44146,96.3,197990,157144,3.5
17380,1747,1,77,100.0,8,43924,96.3,197995,157196,3.5
17390,1748,1,77,100.0,0,43558,96.3,198031,157277,3.5
17400,1749,1,77,100.0,0,43047,96.3,198079,157324,3.5
17410,1750,1,77,100.0,0,42442,96.3,198103,157349,3.5
17420,1751,1,77,100.0,0,41758,96.3,198137,157389,3.5
17430,1752,1,77,100.0,0,41033,96.3,198083,157400,3.5
17440,1753,1,77,100.0,0,40292,96.3,198151,157444,3.5
17450,1754,1,77,100.0,0,39550,96.3,198152,157457,3.5
17460,1755,1,77,100.0,0,38819,96.3,198196,157483,3.5
17470,1756,1,77,100.0,0,38126,96.3,198204,157530,3.5
17480,1757,1,77,100.0,0,37510,96.3,198208,157556,3.5
17490,1758,1,77,100.0,0,36946,96.3,198255,157590,3.5
17500,1759,1,77,100.0,0,36446,96.3,198255,157633,3.5
17510,1760,1,77,100.0,0,36012,96.3,198288,157701,3.5
17520,1761,1,77,100.0,0,35657,96.3,198316,157764,3.5
17530,1762,1,77,100.0,0,35327,96.3,198364,157844,3.5
17540,1763,1,77,100.0,0,35050,96.3,198411,157911,3.5
17550,1764,1,77,100.0,0,34798,96.3,198431,157984,3.5
17560,1765,1,77,100.0,0,34546,96.3,198492,158085,3.5
17570,1766,1,77,100.0,0,34320,96.3,198553,158197,3.5
17580,1767,1,77,100.0,0,34079,96.3,198609,158253,3.5
17590,1768,1,77,100.0,0,33811,96.3,198614,158338,3.5
17600,1769,1,77,100.0,0,33527,96.3,198730,158437,3.5
17610,1770,1,77,100.0,0,33202,96.3,198756,158513,3.5
17620,1771,1,77,100.0,0,32835,96.3,198801,158570,3.5
17630,1772,1,77,100.0,0,32439,96.3,198795,158655,3.5
17640,1773,1,77,100.0,0,32001,96.3,198877,158766,3.5
17650,1774,1,77,100.0,0,31533,96.3,198909,158839,3.5
17660,1775,1,77,100.0,0,31022,96.3,198961,158896,3.5
17670,1776,1,77,100.0,0,30510,96.3,199005,158999,3.5
17680,1777,1,77,100.0,0,29968,96.3,199074,159117,3.5
17690,1778,1,77,100.0,0,29424,96.3,199110,159162,3.5
17700,1779,1,77,100.0,0,28879,96.3,199150,159243,3.5
17710,1780,1,77,100.0,0,28346,96.3,199225,159324,3.5
17720,1781,1,77,100.0,0,27811,96.3,199242,159414,3.5
17730,1782,1,77,100.0,0,27288,96.3,199282,159468,3.5
17740,1783,1,77,100.0,0,26778,96.3,199333,159562,3.5
17750,1784,1,77,100.0,0,26280,96.3,199358,159596,3.5
17760,1785,1,77,100.0,0,25795,96.3,199379,159689,3.5
17770,1786,1,77,100.0,0,25323,96.3,199419,159752,3.5
17780,1787,1,77,100.0,0,24864,96.3,199433,159821,3.5
17790,1788,1,77,100.0,0,24431,96.3,199468,159858,3.5
17800,1789,1,77,100.0,0,24012,96.3,199470,159927,3.5
17810,1790,1,77,100.0,0,23606,96.3,199532,160007,3.5
17820,1791,1,77,100.0,0,23227,96.3,199523,160068,3.5
17830,1792,1,77,100.0,0,22876,96.3,199560,160135,3.5
17840,1793,1,77,100.0,0,22524,96.3,199601,160228,3.5
17850,1794,1,77,100.0,0,22186,96.3,199656,160306,3.5
17860,1795,1,77,100.0,0,21875,96.3,199655,160367,3.5
17870,1796,1,77,100.0,0,21563,96.3,199704,160410,3.5
17880,1797,1,77,100.0,0,21266,96.3,199720,160392,3.5
17890,1798,1,77,100.0,0,20968,96.3,199635,160282,3.5
17900,1799,1,77,100.0,0,20683,96.3,199524,159987,3.5
17910,1800,1,77,100.0,0,20441,96.3,199271,159479,3.5
17920,1801,1,77,100.0,0,20256,96.3,199020,159005,3.5
17930,1802,1,77,100.0,0,20170,96.3,198802,158584,3.5
17940,1803,1,77,100.0,0,20227,96.3,198597,158238,3.5
17950,1804,1,77,100.0,0,20471,96.3,198423,157941,3.5
17960,1805,1,77,100.0,0,20972,96.3,198387,157740,3.5
17970,1806,1,77,100.0,0,21732,96.3,198255,157550,3.5
17980,1807,1,77,100.0,0,22781,96.3,198128,157366,3.5
17990,1808,1,77,100.0,0,24120,96.3,198184,157356,3.5
18000,1809,1,77,100.0,0,25706,96.3,198136,157246,3.5
18010,1810,1,77,100.0,0,27499,96.3,198073,157130,3.5
18020,1811,1,77,100.0,0,29471,96.3,197971,157028,3.5
18030,1812,1,77,100.0,0,31521,96.3,197914,156962,3.5
18040,1813,1,77,100.0,0,33623,96.3,197926,156924,3.5
18050,1814,1,77,100.0,0,35675,96.3,197882,156916,3.5
18060,1815,1,77,100.0,0,37631,96.3,197894,156900,3.5
18070,1816,1,77,100.0,0,39433,96.3,197931,156929,3.5
18080,1817,1,77,100.0,0,41035,96.3,197908,156892,3.5
18090,1818,1,77,100.0,0,42421,96.3,197915,156915,3.5
18100,1819,1,77,100.0,0,43561,96.3,197965,156992,3.5
18110,1820,1,77,100.0,0,44454,96.3,197986,157049,3.5
18120,1821,1,77,100.0,0,45084,96.3,198071,157184,3.5
18130,1822,1,77,100.0,0,45480,96.3,198127,157273,3.5
18140,1823,1,77,100.0,0,45642,96.3,198125,157351,3.5
18150,1824,1,77,100.0,0,45583,96.3,198186,157457,3.5
18160,1825,1,77,100.0,8,45332,96.3,198192,157492,3.5
18170,1826,1,77,100.0,0,44903,96.3,198232,157579,3.5
18180,1827,1,77,100.0,0,44341,96.3,198255,157616,3.5
18190,1828,1,77,100.0,0,43660,96.3,198270,157647,3.5
18200,1829,1,77,100.0,0,42918,96.3,198341,157698,3.5
18210,1830,1,77,100.0,0,42101,96.3,198350,157741,3.5
18220,1831,1,77,100.0,0,41267,96.3,198360,157772,3.5
18230,1832,1,77,100.0,0,40416,96.3,198397,157832,3.5
18240,1833,1,77,100.0,0,39608,96.3,198412,157835,3.5
18250,1834,1,77,100.0,0,38842,96.3,198439,157879,3.5
18260,1835,1,77,100.0,0,38120,96.3,198467,157948,3.5
18270,1836,1,77,100.0,0,37470,96.3,198516,157988,3.5
18280,1837,1,77,100.0,0,36892,96.3,198562,158043,3.5
18290,1838,1,77,100.0,0,36389,96.3,198621,158127,3.5
18300,1839,1,77,100.0,0,35928,96.3,198647,158183,3.5
18310,1840,1,77,100.0,0,35527,96.3,198667,158241,3.5
18320,1841,1,77,100.0,0,35154,96.3,198705,158331,3.5
18330,1842,1,77,100.0,0,34810,96.3,198734,158380,3.5
18340,1843,1,77,100.0,0,34496,96.3,198782,158491,3.5
18350,1844,1,77,100.0,0,34180,96.3,198826,158559,3.5
18360,1845,1,77,100.0,0,33863,96.3,198900,158645,3.5
18370,1846,1,77,100.0,0,33514,96.3,198966,158724,3.5
18380,1847,1,77,100.0,0,33149,96.3,199014,158808,3.5
18390,1848,1,77,100.0,0,32736,96.3,199024,158852,3.5
18400,1849,1,77,100.0,0,32307,96.3,199068,158951,3.5
18410,1850,1,77,100.0,0,31829,96.3,199077,159008,3.5
18420,1851,1,77,100.0,0,31319,96.3,199168,159087,3.5
18430,1852,1,77,100.0,0,30761,96.3,199232,159175,3.5
18440,1853,1,77,100.0,0,30201,96.3,199285,159243,3.5
18450,1854,1,77,100.0,0,29608,96.3,199325,159320,3.5
18460,1855,1,77,100.0,0,28998,96.3,199366,159366,3.5
18470,1856,1,77,100.0,0,28370,96.3,199386,159429,3.5
18480,1857,1,77,100.0,0,27756,96.3,199452,159512,3.5
18490,1858,1,77,100.0,0,27139,96.3,199526,159616,3.5
18500,1859,1,77,100.0,0,26522,96.3,199576,159651,3.5
18510,1860,1,77,100.0,0,25933,96.3,199614,159739,3.5
18520,1861,1,77,100.0,0,25359,96.3,199641,159793,3.5
18530,1862,1,77,100.0,0,24815,96.3,199667,159840,3.5
18540,1863,1,77,100.0,0,24286,96.3,199720,159951,3.5
18550,1864,1,77,100.0,0,23755,96.3,199761,160029,3.5
18560,1865,1,77,100.0,0,23270,96.3,199755,160102,3.5
18570,1866,1,77,100.0,0,22816,96.3,199833,160148,3.5
18580,1867,1,77,100.0,0,22361,96.3,199887,160249,3.5
18590,1868,1,77,100.0,0,21905,96.3,199927,160292,3.5
18600,1869,1,77,100.0,0,21480,96.3,199940,160383,3.5
18610,1870,1,77,100.0,0,21054,96.3,199956,160426,3.5
18620,1871,1,77,100.0,0,20644,96.3,200048,160538,3.5
18630,1872,1,77,100.0,0,20233,96.3,200033,160582,3.5
18640,1873,1,77,100.0,0,19837,96.3,200057,160617,3.5
18650,1874,1,77,100.0,0,19441,96.3,200054,160565,3.5
18660,1875,1,77,100.0,0,19060,96.3,199969,160437,3.5
18670,1876,1,77,100.0,0,18679,96.3,199842,160112,3.5
18680,1877,1,77,100.0,0,18361,96.3,199547,159587,3.5
18690,1878,1,77,100.0,0,18107,96.3,199277,159096,3.5
18700,1879,1,77,100.0,0,17980,96.3,199110,158700,3.5
18710,1880,1,77,100.0,0,18045,96.3,198876,158331,3.5
18720,1881,1,77,100.0,0,18367,96.3,198663,158010,3.5
18730,1882,1,77,100.0,0,18978,96.3,198546,157760,3.5
18740,1883,1,77,100.0,0,19911,96.3,198395,157552,3.5
18750,1884,1,77,100.0,0,21199,96.3,198334,157358,3.5
18760,1885,1,77,100.0,0,22795,96.3,198216,157209,3.5
18770,1886,1,77,100.0,0,24717,96.3,198146,157067,3.5
18780,1887,1,77,100.0,0,26886,96.3,198102,156948,3.5
18790,1888,1,77,100.0,0,29239,96.3,198064,156917,3.5
18800,1889,1,77,100.0,0,31713,96.3,197998,156813,3.5
18810,1890,1,77,100.0,0,34245,96.3,197948,156756,3.5
18820,1891,1,77,100.0,0,36754,96.3,197933,156732,3.5
18830,1892,1,77,100.0,0,39141,96.3,197895,156674,3.5
18840,1893,1,77,100.0,0,41370,96.3,197891,156676,3.5
18850,1894,1,77,100.0,0,43359,96.3,197904,156674,3.5
18860,1895,1,77,100.0,0,45106,96.3,197931,156696,3.5
18870,1896,1,77,100.0,0,46578,96.3,197955,156740,3.5
18880,1897,1,77,100.0,0,47739,96.3,197933,156777,3.5
18890,1898,1,77,100.0,0,48591,96.3,197988,156866,3.5
18900,1899,1,77,100.0,0,49163,96.3,198054,156950,3.5
18910,1900,1,77,100.0,0,49473,96.3,198065,157043,3.5
18920,1901,1,77,100.0,0,49488,96.3,198107,157130,3.5
18930,1902,1,77,100.0,8,49288,96.3,198170,157171,3.5
18940,1903,1,77,100.0,0,48891,96.3,198178,157211,3.5
18950,1904,1,77,100.0,0,48295,96.3,198201,157286,3.5
18960,1905,1,77,100.0,0,47583,96.3,198261,157321,3.5
18970,1906,1,77,100.0,0,46772,96.3,198227,157365,3.5
18980,1907,1,77,100.0,0,45910,96.3,198233,157357,3.5
18990,1908,1,77,100.0,0,44980,96.3,198217,157364,3.5
19000,1909,1,77,100.0,0,44049,96.3,198217,157369,3.5
19010,1910,1,77,100.0,0,43150,96.3,198269,157415,3.5
19020,1911,1,77,100.0,0,42315,96.3,198294,157426,3.5
19030,1912,1,77,100.0,0,41529,96.3,198292,157453,3.5
19040,1913,1,77,100.0,0,40824,96.3,198308,157511,3.5
19050,1914,1,77,100.0,0,40201,96.3,198384,157621,3.5
19060,1915,1,77,100.0,0,39660,96.3,198438,157635,3.5
19070,1916,1,77,100.0,0,39202,96.3,198455,157677,3.5
19080,1917,1,77,100.0,0,38792,96.3,198478,157746,3.5
19090,1918,1,77,100.0,0,38449,96.3,198497,157796,3.5
19100,1919,1,77,100.0,0,38121,96.3,198560,157883,3.5
19110,1920,1,77,100.0,0,37827,96.3,198603,157958,3.5
19120,1921,1,77,100.0,0,37548,96.3,198663,158061,3.5
19130,1922,1,77,100.0,0,37234,96.3,198678,158136,3.5
19140,1923,1,77,100.0,0,36886,96.3,198759,158222,3.5
19150,1924,1,77,100.0,0,36503,96.3,198765,158300,3.5
19160,1925,1,77,100.0,0,36067,96.3,198861,158404,3.5
19170,1926,1,77,100.0,0,35579,96.3,198887,158517,3.5
19180,1927,1,77,100.0,0,35037,96.3,198960,158600,3.5
19190,1928,1,77,100.0,0,34443,96.3,199022,158706,3.5
19200,1929,1,77,100.0,0,33812,96.3,199058,158797,3.5
19210,1930,1,77,100.0,0,33128,96.3,199104,158855,3.5
19220,1931,1,77,100.0,0,32406,96.3,199151,158952,3.5
19230,1932,1,77,100.0,0,31629,96.3,199156,158991,3.5
19240,1933,1,77,100.0,0,30850,96.3,199219,159097,3.5
19250,1934,1,77,100.0,0,30068,96.3,199252,159159,3.5
19260,1935,1,77,100.0,0,29266,96.3,199307,159236,3.5
19270,1936,1,77,100.0,0,28479,96.3,199318,159301,3.5
19280,1937,1,77,100.0,0,27724,96.3,199392,159413,3.5
19290,1938,1,77,100.0,0,26985,96.3,199438,159452,3.5
19300,1939,1,77,100.0,0,26278,96.3,199453,159538,3.5
19310,1940,1,77,100.0,0,25622,96.3,199526,159640,3.5
19320,1941,1,77,100.0,0,24999,96.3,199553,159720,3.5
19330,1942,1,77,100.0,0,24427,96.3,199575,159794,3.5
19340,1943,1,77,100.0,0,23871,96.3,199661,159884,3.5
19350,1944,1,77,100.0,0,23350,96.3,199696,159963,3.5
19360,1945,1,77,100.0,0,22862,96.3,199740,160047,3.5
19370,1946,1,77,100.0,0,22373,96.3,199760,160180,3.2
19380,1947,1,77,100.0,0,21884,96.3,199813,160212,3.2
19390,1948,1,77,100.0,0,21429,96.3,199878,160332,3.2
19400,1949,1,77,100.0,0,20973,96.3,199926,160360,3.2
19410,1950,1,77,100.0,0,20482,96.3,199911,160356,3.2
19420,1951,1,77,100.0,0,20007,96.3,199887,160310,3.2
19430,1952,1,77,100.0,0,19531,96.3,199807,160130,3.2
19440,1953,1,77,100.0,0,19073,96.3,199657,159747,3.2
19450,1954,1,77,100.0,0,18668,96.3,199361,159193,3.2
19460,1955,1,77,100.0,0,18369,96.3,199100,158690,3.2
19470,1956,1,77,100.0,0,18229,96.3,198885,158291,3.2
19480,1957,1,77,100.0,0,18322,96.3,198645,157910,3.2
19490,1958,1,77,100.0,0,18717,96.3,198495,157598,3.2
19500,1959,1,77,100.0,0,19435,96.3,198324,157331,3.2
19510,1960,1,77,100.0,0,20547,96.3,198236,157142,3.2
19520,1961,1,77,100.0,0,22072,96.3,198108,156929,3.2
19530,1962,1,77,100.0,0,23977,96.3,198061,156842,3.2
19540,1963,1,77,100.0,0,26246,96.3,197988,156667,3.2
19550,1964,1,77,100.0,0,28808,96.3,197936,156573,3.2
19560,1965,1,77,100.0,0,31559,96.3,197849,156457,3.2
19570,1966,1,77,100.0,0,34447,96.3,197826,156416,3.2
19580,1967,1,77,100.0,0,37399,96.3,197765,156325,3.2
19590,1968,1,77,100.0,0,40270,96.3,197727,156313,3.2
19600,1969,1,77,100.0,0,43020,96.3,197726,156258,3.2
19610,1970,1,77,100.0,0,45539,96.3,197698,156221,3.2
19620,1971,1,77,100.0,0,47789,96.3,197712,156240,3.2
19630,1972,1,77,100.0,0,49731,96.3,197710,156292,3.2
19640,1973,1,77,100.0,0,51365,96.3,197784,156326,3.2
19650,1974,1,77,100.0,0,52635,96.3,197758,156411,3.2
19660,1975,1,77,100.0,0,53559,96.3,197818,156495,3.2
19670,1976,1,77,100.0,0,54136,96.3,197909,156598,3.2
19680,1977,1,77,100.0,0,54367,96.3,197925,156681,3.2
19690,1978,1,77,100.0,0,54342,96.3,197958,156764,3.2
19700,1979,1,77,100.0,8,54025,96.3,198060,156816,3.2
19710,1980,1,77,100.0,0,53470,96.3,198025,156860,3.2
19720,1981,1,77,100.0,0,52733,96.3,198116,156940,3.2
19730,1982,1,77,100.0,0,51831,96.3,198071,156969,3.2
19740,1983,1,77,100.0,0,50837,96.3,198151,156997,3.2
19750,1984,1,77,100.0,0,49752,96.3,198112,156983,3.2
19760,1985,1,77,100.0,0,48647,96.3,198104,157033,3.2
19770,1986,1,77,100.0,0,47542,96.3,198145,157040,3.2
19780,1987,1,77,100.0,0,46472,96.3,198169,157064,3.2
19790,1988,1,77,100.0,0,45474,96.3,198210,157134,3.2
19800,1989,1,77,100.0,0,44549,96.3,198212,157153,3.2
19810,1990,1,77,100.0,0,43714,96.3,198267,157200,3.2
19820,1991,1,77,100.0,0,42970,96.3,198299,157280,3.2
19830,1992,1,77,100.0,0,42336,96.3,198300,157331,3.2
19840,1993,1,77,100.0,0,41793,96.3,198362,157403,3.2
19850,1994,1,77,100.0,0,41305,96.3,198381,157456,3.2
19860,1995,1,77,100.0,0,40871,96.3,198407,157515,3.2
19870,1996,1,77,100.0,0,40455,96.3,198468,157599,3.2
19880,1997,1,77,100.0,0,40074,96.3,198513,157686,3.2
19890,1998,1,77,100.0,0,39693,96.3,198565,157777,3.2
19900,1999,1,77,100.0,0,39293,96.3,198586,157861,3.2
19910,2000,1,77,100.0,0,38854,96.3,198653,157972,3.2
19920,2001,1,77,100.0,0,38376,96.3,198686,158045,3.2
19930,2002,1,77,100.0,0,37840,96.3,198745,158121,3.2
19940,2003,1,77,100.0,0,37265,96.3,198797,158193,3.2
19950,2004,1,77,100.0,0,36613,96.3,198851,158308,3.2
19960,2005,1,77,100.0,0,35921,96.3,198931,158382,3.2
19970,2006,1,77,100.0,0,35189,96.3,198967,158468,3.2
19980,2007,1,77,100.0,0,34397,96.3,198976,158559,3.2
19990,2008,1,77,100.0,0,33565,96.3,199058,158659,3.2
20000,2009,1,77,100.0,0,32729,96.3,199087,158709,3.2
20010,2010,1,77,100.0,0,31852,96.3,199133,158801,3.2
20020,2011,1,77,100.0,0,30952,96.3,199196,158848,3.2
20030,2012,1,77,100.0,0,30069,96.3,199220,158938,3.2
20040,2013,1,77,100.0,0,29201,96.3,199278,158993,3.2
20050,2014,1,77,100.0,0,28350,96.3,199322,159068,3.2
20060,2015,1,77,100.0,0,27497,96.3,199347,159127,3.2
20070,2016,1,77,100.0,0,26718,96.3,199413,159201,3.2
20080,2017,1,77,100.0,0,25937,96.3,199453,159280,3.2
20090,2018,1,77,100.0,0,25192,96.3,199510,159345,3.2
20100,2019,1,77,100.0,0,24485,96.3,199566,159434,3.2
20110,2020,1,77,100.0,0,23814,96.3,199599,159490,3.2
20120,2021,1,77,100.0,0,23181,96.3,199661,159581,3.2
20130,2022,1,77,100.0,0,22567,96.3,199711,159638,3.2
20140,2023,1,77,100.0,0,21989,96.3,199746,159700,3.2
20150,2024,1,77,100.0,0,21411,96.3,199767,159758,3.2
20160,2025,1,77,100.0,0,20832,96.3,199821,159863,3.2
20170,2026,1,77,100.0,0,20252,96.3,199869,159914,3.2
20180,2027,1,77,100.0,0,19730,96.3,199886,159945,3.2
20190,2028,1,77,100.0,0,19188,96.3,199852,159899,3.2
20200,2029,1,77,100.0,0,18664,96.3,199759,159728,3.2
20210,2030,1,77,100.0,0,18179,96.3,199658,159433,3.2
20220,2031,1,77,100.0,0,17753,96.3,199364,158913,3.2
20230,2032,1,77,100.0,0,17405,96.3,199201,158434,3.2
20240,2033,1,77,100.0,0,17194,96.3,198951,157933,3.2
20250,2034,1,77,100.0,0,17218,96.3,198697,157562,3.2
20260,2035,1,77,100.0,0,17558,96.3,198454,157197,3.2
20270,2036,1,77,100.0,0,18273,96.3,198353,156946,3.2
20280,2037,1,77,100.0,0,19402,96.3,198252,156737,3.2
20290,2038,1,77,100.0,0,20968,96.3,198097,156543,3.2
20300,2039,1,77,100.0,0,22991,96.3,198014,156386,3.2
20310,2040,1,77,100.0,0,25394,96.3,197955,156258,3.2
20320,2041,1,77,100.0,0,28122,96.3,197855,156168,3.2
20330,2042,1,77,100.0,0,31077,96.3,197843,156119,3.2
20340,2043,1,77,100.0,0,34222,96.3,197812,156050,3.2
20350,2044,1,77,100.0,0,37438,96.3,197782,155996,3.2
20360,2045,1,77,100.0,0,40603,96.3,197736,155895,3.2
20370,2046,1,77,100.0,0,43616,96.3,197650,155877,3.2
20380,2047,1,77,100.0,0,46393,96.3,197672,155850,3.2
20390,2048,1,77,100.0,0,48893,96.3,197649,155873,3.2
20400,2049,1,77,100.0,0,51033,96.3,197649,155875,3.2
20410,2050,1,77,100.0,0,52833,96.3,197655,155929,3.2
20420,2051,1,77,100.0,0,54251,96.3,197706,156010,3.2
20430,2052,1,77,100.0,0,55247,96.3,197740,156072,3.2
20440,2053,1,77,100.0,0,55880,96.3,197792,156178,3.2
20450,2054,1,77,100.0,0,56171,96.3,197797,156255,3.2
20460,2055,1,77,100.0,0,56140,96.3,197826,156318,3.2
20470,2056,1,77,100.0,8,55828,96.3,197831,156342,3.2
20480,2057,1,77,100.0,0,55254,96.3,197830,156358,3.2
20490,2058,1,77,100.0,0,54480,96.3,197947,156482,3.2
20500,2059,1,77,100.0,0,53544,96.3,197974,156522,3.2
20510,2060,1,77,100.0,0,52487,96.3,197984,156540,3.2
20520,2061,1,77,100.0,0,51370,96.3,198065,156588,3.2
20530,2062,1,77,100.0,0,50192,96.3,198080,156632,3.2
20540,2063,1,77,100.0,0,49034,96.3,198114,156646,3.2
20550,2064,1,77,100.0,0,47895,96.3,198115,156682,3.2
20560,2065,1,77,100.0,0,46816,96.3,198127,156716,3.2
20570,2066,1,77,100.0,0,45796,96.3,198114,156755,3.2
20580,2067,1,77,100.0,0,44876,96.3,198133,156771,3.2
20590,2068,1,77,100.0,0,44016,96.3,198112,156810,3.2
20600,2069,1,77,100.0,0,43257,96.3,198154,156894,3.2
20610,2070,1,77,100.0,0,42597,96.3,198214,156951,3.2
20620,2071,1,77,100.0,0,41998,96.3,198280,157046,3.2
20630,2072,1,77,100.0,0,41459,96.3,198350,157155,3.2
20640,2073,1,77,100.0,0,40959,96.3,198403,157235,3.2
20650,2074,1,77,100.0,0,40479,96.3,198466,157341,3.2
20660,2075,1,77,100.0,0,39997,96.3,198509,157431,3.2
20670,2076,1,77,100.0,0,39473,96.3,198573,157460,3.2
20680,2077,1,77,100.0,0,38948,96.3,198564,157529,3.2
20690,2078,1,77,100.0,0,38359,96.3,198633,157678,3.2
20700,2079,1,77,100.0,0,37728,96.3,198692,157770,3.2
20710,2080,1,77,100.0,0,37032,96.3,198774,157840,3.2
20720,2081,1,77,100.0,0,36293,96.3,198844,157971,3.2
20730,2082,1,77,100.0,0,35468,96.3,198873,158075,3.2
20740,2083,1,77,100.0,0,34620,96.3,198920,158153,3.2
20750,2084,1,77,100.0,0,33706,96.3,198967,158267,3.2
20760,2085,1,77,100.0,0,32767,96.3,199039,158354,3.2
20770,2086,1,77,100.0,0,31783,96.3,199125,158424,3.2
20780,2087,1,77,100.0,0,30753,96.3,199141,158514,3.2
20790,2088,1,77,100.0,0,29720,96.3,199208,158612,3.2
20800,2089,1,77,100.0,0,28683,96.3,199229,158716,3.2
20810,2090,1,77,100.0,0,27643,96.3,199264,158736,3.2
20820,2091,1,77,100.0,0,26621,96.3,199325,158825,3.2
20830,2092,1,77,100.0,0,25618,96.3,199371,158955,3.2
20840,2093,1,77,100.0,0,24633,96.3,199402,159015,3.2
20850,2094,1,77,100.0,0,23688,96.3,199437,159071,3.2
20860,2095,1,77,100.0,0,22806,96.3,199510,159177,3.2
20870,2096,1,77,100.0,0,21963,96.3,199547,159264,3.2
20880,2097,1,77,100.0,0,21162,96.3,199584,159359,3.2
20890,2098,1,77,100.0,0,20381,96.3,199615,159442,3.2
20900,2099,1,77,100.0,0,19663,96.3,199695,159538,3.2
20910,2100,1,77,100.0,0,18987,96.3,199761,159614,3.2
20920,2101,1,77,100.0,0,18353,96.3,199785,159676,3.2
20930,2102,1,77,100.0,0,17739,96.3,199761,159712,3.2
20940,2103,1,77,100.0,0,17125,96.3,199788,159661,3.2
20950,2104,1,77,100.0,0,16575,96.3,199695,159527,3.2
20960,2105,1,77,100.0,0,16024,96.3,199606,159182,3.2
20970,2106,1,77,100.0,0,15559,96.3,199269,158572,3.2
20980,2107,1,77,100.0,0,15179,96.3,198940,158057,3.2
20990,2108,1,77,100.0,0,15015,96.3,198694,157577,3.2
21000,2109,1,77,100.0,0,15130,96.3,198481,157192,3.2
21010,2110,1,77,100.0,0,15589,96.3,198304,156850,3.2
21020,2111,1,77,100.0,0,16502,96.3,198131,156551,3.2
21030,2112,1,77,100.0,0,17890,96.3,198008,156284,3.2
21040,2113,1,77,100.0,0,19776,96.3,197849,156071,3.2
21050,2114,1,77,100.0,0,22162,96.3,197768,155897,3.2
21060,2115,1,77,100.0,0,24965,96.3,197724,155785,3.2
21070,2116,1,77,100.0,0,28165,96.3,197646,155647,3.2
21080,2117,1,77,100.0,0,31680,96.3,197566,155563,3.2
21090,2118,1,77,100.0,0,35338,96.3,197507,155461,3.2
21100,2119,1,77,100.0,0,39096,96.3,197516,155417,3.2
21110,2120,1,77,100.0,0,42798,96.3,197450,155343,3.2
21120,2121,1,77,100.0,0,46354,96.3,197434,155321,3.2
21130,2122,1,77,100.0,0,49651,96.3,197399,155287,3.2
21140,2123,1,77,100.0,0,52621,96.3,197379,155263,3.2
21150,2124,1,77,100.0,0,55218,96.3,197403,155301,3.2
21160,2125,1,77,100.0,0,57375,96.3,197425,155337,3.2
21170,2126,1,77,100.0,0,59092,96.3,197456,155439,3.2
21180,2127,1,77,100.0,0,60347,96.3,197508,155520,3.2
21190,2128,1,77,100.0,0,61183,96.3,197546,155607,3.2
21200,2129,1,77,100.0,0,61579,96.3,197629,155708,3.2
21210,2130,1,77,100.0,0,61602,96.3,197688,155825,3.2
21220,2131,1,77,100.0,8,61275,96.3,197726,155883,3.2
21230,2132,1,77,100.0,0,60663,96.3,197747,155924,3.2
21240,2133,1,77,100.0,0,59767,96.3,197789,155987,3.2
21250,2134,1,77,100.0,0,58653,96.3,197770,156031,3.2
21260,2135,1,77,100.0,0,57387,96.3,197795,156013,3.2
21270,2136,1,77,100.0,0,56034,96.3,197817,156045,3.2
21280,2137,1,77,100.0,0,54617,96.3,197799,156095,3.2
21290,2138,1,77,100.0,0,53222,96.3,197824,156105,3.2
21300,2139,1,77,100.0,0,51871,96.3,197863,156156,3.2
21310,2140,1,77,100.0,0,50586,96.3,197910,156211,3.2
21320,2141,1,77,100.0,0,49366,96.3,197947,156272,3.2
21330,2142,1,77,100.0,0,48256,96.3,197987,156332,3.2
21340,2143,1,77,100.0,0,47256,96.3,198016,156383,3.2
21350,2144,1,77,100.0,0,46364,96.3,198065,156467,3.2
21360,2145,1,77,100.0,0,45560,96.3,198110,156534,3.2
21370,2146,1,77,100.0,0,44844,96.3,198147,156614,2.9
21380,2147,1,77,100.0,0,44193,96.3,198173,156719,2.9
21390,2148,1,77,100.0,0,43585,96.3,198240,156827,2.9
21400,2149,1,77,100.0,0,42998,96.3,198337,156911,2.9
21410,2150,1,77,100.0,0,42410,96.3,198359,156995,2.9
21420,2151,1,77,100.0,0,41777,96.3,198436,157131,2.9
21430,2152,1,77,100.0,0,41097,96.3,198494,157230,2.9
21440,2153,1,77,100.0,0,40371,96.3,198580,157317,2.9
21450,2154,1,77,100.0,0,39599,96.3,198589,157452,2.9
21460,2155,1,77,100.0,0,38734,96.3,198662,157532,2.9
21470,2156,1,77,100.0,0,37800,96.3,198719,157645,2.9
21480,2157,1,77,100.0,0,36773,96.3,198734,157744,2.9
21490,2158,1,77,100.0,0,35698,96.3,198840,157864,2.9
21500,2159,1,77,100.0,0,34574,96.3,198902,157961,2.9
21510,2160,1,77,100.0,0,33423,96.3,198919,158054,2.9
21520,2161,1,77,100.0,0,32200,96.3,198976,158161,2.9
21530,2162,1,77,100.0,0,30995,96.3,199060,158259,2.9
21540,2163,1,77,100.0,0,29763,96.3,199080,158333,2.9
21550,2164,1,77,100.0,0,28526,96.3,199140,158429,2.9
21560,2165,1,77,100.0,0,27309,96.3,199237,158535,2.9
21570,2166,1,77,100.0,0,26111,96.3,199233,158626,2.9
21580,2167,1,77,100.0,0,24933,96.3,199319,158722,2.9
21590,2168,1,77,100.0,0,23798,96.3,199375,158813,2.9
21600,2169,1,77,100.0,0,22706,96.3,199407,158916,2.9
21610,2170,1,77,100.0,0,21659,96.3,199525,159019,2.9
21620,2171,1,77,100.0,0,20633,96.3,199520,159083,2.9
21630,2172,1,77,100.0,0,19674,96.3,199634,159189,2.9
21640,2173,1,77,100.0,0,18737,96.3,199600,159238,2.9
21650,2174,1,77,100.0,0,17845,96.3,199674,159326,2.9
21660,2175,1,77,100.0,0,16976,96.3,199750,159444,2.9
21670,2176,1,77,100.0,0,16152,96.3,199824,159505,2.9
21680,2177,1,77,100.0,0,15328,96.3,199820,159571,2.9
21690,2178,1,77,100.0,0,14526,96.3,199855,159598,2.9
21700,2179,1,77,100.0,0,13747,96.3,199854,159536,2.9
21710,2180,1,77,100.0,0,13015,96.3,199749,159386,2.9
21720,2181,1,77,100.0,0,12353,96.3,199649,159093,2.9
21730,2182,1,77,100.0,0,11760,96.3,199261,158539,2.9
21740,2183,1,77,100.0,0,11283,96.3,199007,157885,2.9
21750,2184,1,77,100.0,0,11016,96.3,198713,157343,2.9
21760,2185,1,77,100.0,0,11075,96.3,198462,156888,2.9
21770,2186,1,77,100.0,0,11505,96.3,198242,156501,2.9
21780,2187,1,77,100.0,0,12448,96.3,198071,156168,2.9
21790,2188,1,77,100.0,0,13950,96.3,197900,155881,2.9
21800,2189,1,77,100.0,0,16058,96.3,197770,155668,2.9
21810,2190,1,77,100.0,0,18728,96.3,197655,155453,2.9
21820,2191,1,77,100.0,0,21962,96.3,197610,155312,2.9
21830,2192,1,77,100.0,0,25647,96.3,197394,155186,2.9
21840,2193,1,77,100.0,0,29694,96.3,197425,155052,2.9
21850,2194,1,77,100.0,0,33966,96.3,197343,154965,2.9
21860,2195,1,77,100.0,0,38347,96.3,197320,154883,2.9
21870,2196,1,77,100.0,0,42694,96.3,197267,154798,2.9
21880,2197,1,77,100.0,0,46859,96.3,197232,154760,2.9
21890,2198,1,77,100.0,0,50792,96.3,197194,154724,2.9
21900,2199,1,77,100.0,0,54349,96.3,197162,154664,2.9
21910,2200,1,77,100.0,0,57431,96.3,197174,154685,2.9
21920,2201,1,77,100.0,0,60038,96.3,197175,154720,2.9
21930,2202,1,77,100.0,0,62144,96.3,197210,154800,2.9
21940,2203,1,77,100.0,0,62258,96.3,197224,154856,2.9
21950,2204,1,77,100.0,0,62258,96.3,197305,154992,2.9
21960,2205,1,77,100.0,0,62258,96.3,197391,155161,2.9
21970,2206,1,77,100.0,0,62258,96.3,197444,155231,2.9
21980,2207,1,77,100.0,8,62045,96.3,197522,155372,2.9
21990,2208,1,77,100.0,0,61494,96.3,197558,155482,2.9
22000,2209,1,77,100.0,0,60646,96.3,197575,155532,2.9
22010,2210,1,77,100.0,0,59544,96.3,197617,155591,2.9
22020,2211,1,77,100.0,0,58253,96.3,197624,155635,2.9
22030,2212,1,77,100.0,0,56836,96.3,197659,155711,2.9
22040,2213,1,77,100.0,0,55314,96.3,197670,155754,2.9
22050,2214,1,77,100.0,0,53728,96.3,197696,155807,2.9
22060,2215,1,77,100.0,0,52143,96.3,197747,155835,2.9
22070,2216,1,77,100.0,0,50622,96.3,197751,155901,2.9
22080,2217,1,77,100.0,0,49164,96.3,197819,155975,2.9
22090,2218,1,77,100.0,0,47791,96.3,197895,156034,2.9
22100,2219,1,77,100.0,0,46501,96.3,197865,156095,2.9
22110,2220,1,77,100.0,0,45317,96.3,197912,156182,2.9
22120,2221,1,77,100.0,0,44239,96.3,197965,156248,2.9
22130,2222,1,77,100.0,0,43287,96.3,198026,156366,2.9
22140,2223,1,77,100.0,0,42419,96.3,198076,156463,2.9
22150,2224,1,77,100.0,0,41615,96.3,198121,156553,2.9
22160,2225,1,77,100.0,0,40851,96.3,198156,156614,2.9
22170,2226,1,77,100.0,0,40108,96.3,198232,156742,2.9
22180,2227,1,77,100.0,0,39384,96.3,198302,156841,2.9
22190,2228,1,77,100.0,0,38636,96.3,198340,156918,2.9
22200,2229,1,77,100.0,0,37886,96.3,198395,157064,2.9
22210,2230,1,77,100.0,0,37091,96.3,198488,157179,2.9
22220,2231,1,77,100.0,0,36250,96.3,198526,157294,2.9
22230,2232,1,77,100.0,0,35384,96.3,198577,157404,2.9
22240,2233,1,77,100.0,0,34427,96.3,198669,157497,2.9
22250,2234,1,77,100.0,0,33424,96.3,198698,157596,2.9
22260,2235,1,77,100.0,0,32372,96.3,198773,157721,2.9
22270,2236,1,77,100.0,0,31273,96.3,198808,157826,2.9
22280,2237,1,77,100.0,0,30125,96.3,198893,157939,2.9
22290,2238,1,77,100.0,0,28930,96.3,198951,158050,2.9
22300,2239,1,77,100.0,0,27709,96.3,199000,158114,2.9
22310,2240,1,77,100.0,0,26506,96.3,199060,158216,2.9
22320,2241,1,77,100.0,0,25278,96.3,199094,158301,2.9
22330,2242,1,77,100.0,0,24092,96.3,199140,158368,2.9
22340,2243,1,77,100.0,0,22903,96.3,199192,158485,2.9
22350,2244,1,77,100.0,0,21756,96.3,199223,158531,2.9
22360,2245,1,77,100.0,0,20651,96.3,199253,158599,2.9
22370,2246,1,77,100.0,0,19612,96.3,199303,158692,2.9
22380,2247,1,77,100.0,0,18616,96.3,199340,158788,2.9
22390,2248,1,77,100.0,0,17686,96.3,199422,158862,2.9
22400,2249,1,77,100.0,0,16823,96.3,199426,158937,2.9
22410,2250,1,77,100.0,0,16003,96.3,199465,158986,2.9
22420,2251,1,77,100.0,0,15250,96.3,199515,159080,2.9
22430,2252,1,77,100.0,0,14564,96.3,199530,159170,2.9
22440,2253,1,77,100.0,0,13878,96.3,199597,159219,2.9
22450,2254,1,77,100.0,0,13259,96.3,199621,159254,2.9
22460,2255,1,77,100.0,0,12685,96.3,199618,159219,2.9
22470,2256,1,77,100.0,0,12134,96.3,199573,159092,2.9
22480,2257,1,77,100.0,0,11628,96.3,199424,158816,2.9
22490,2258,1,77,100.0,0,11211,96.3,199169,158277,2.9
22500,2259,1,77,100.0,0,10908,96.3,198749,157550,2.9
22510,2260,1,77,100.0,0,10762,96.3,198436,156962,2.9
22520,2261,1,77,100.0,0,10908,96.3,198177,156518,2.9
22530,2262,1,77,100.0,0,11438,96.3,197945,156052,2.9
22540,2263,1,77,100.0,0,12463,96.3,197702,155714,2.9
22550,2264,1,77,100.0,0,14029,96.3,197554,155408,2.9
22560,2265,1,77,100.0,0,16183,96.3,197409,155200,2.9
22570,2266,1,77,100.0,0,18925,96.3,197320,154988,2.9
22580,2267,1,77,100.0,0,22237,96.3,197204,154819,2.9
22590,2268,1,77,100.0,0,26009,96.3,197128,154687,2.9
22600,2269,1,77,100.0,0,30177,96.3,197020,154551,2.9
22610,2270,1,77,100.0,0,34588,96.3,196973,154465,2.9
22620,2271,1,77,100.0,0,39105,96.3,196908,154384,2.9
22630,2272,1,77,100.0,0,43588,96.3,196857,154225,2.9
22640,2273,1,77,100.0,0,47941,96.3,196840,154264,2.9
22650,2274,1,77,100.0,0,52000,96.3,196822,154228,2.9
22660,2275,1,77,100.0,0,55694,96.3,196791,154232,2.9
22670,2276,1,77,100.0,0,58928,96.3,196794,154242,2.9
22680,2277,1,77,100.0,0,61654,96.3,196842,154300,2.9
22690,2278,1,77,100.0,0,62258,96.3,196895,154377,2.9
22700,2279,1,77,100.0,0,62258,96.3,196914,154458,2.9
22710,2280,1,77,100.0,0,62258,96.3,196986,154611,2.9
22720,2281,1,77,100.0,0,62258,96.3,197080,154718,2.9
22730,2282,1,77,100.0,0,62258,96.3,197128,154742,2.9
22740,2283,1,77,100.0,8,62005,96.3,197201,154913,2.9
22750,2284,1,77,100.0,0,61421,96.3,197239,154998,2.9
22760,2285,1,77,100.0,0,60547,96.3,197256,155016,2.9
22770,2286,1,77,100.0,0,59479,96.3,197271,155100,2.9
22780,2287,1,77,100.0,0,58219,96.3,197322,155125,2.9
22790,2288,1,77,100.0,0,56842,96.3,197301,155151,2.9
22800,2289,1,77,100.0,0,55408,96.3,197356,155192,2.9
22810,2290,1,77,100.0,0,53956,96.3,197334,155178,2.9
22820,2291,1,77,100.0,0,52523,96.3,197370,155246,2.9
22830,2292,1,77,100.0,0,51149,96.3,197379,155287,2.9
22840,2293,1,77,100.0,0,49872,96.3,197414,155357,2.9
22850,2294,1,77,100.0,0,48693,96.3,197451,155368,2.9
22860,2295,1,77,100.0,0,47630,96.3,197499,155472,2.9
22870,2296,1,77,100.0,0,46683,96.3,197560,155543,2.9
22880,2297,1,77,100.0,0,45853,96.3,197585,155609,2.9
22890,2298,1,77,100.0,0,45121,96.3,197637,155671,2.9
22900,2299,1,77,100.0,0,44486,96.3,197651,155801,2.9
22910,2300,1,77,100.0,0,43908,96.3,197745,155885,2.9
22920,2301,1,77,100.0,0,43350,96.3,197772,155945,2.9
22930,2302,1,77,100.0,0,42810,96.3,197787,156025,2.9
22940,2303,1,77,100.0,0,42269,96.3,197893,156163,2.9
22950,2304,1,77,100.0,0,41687,96.3,197939,156277,2.9
22960,2305,1,77,100.0,0,41045,96.3,197982,156372,2.9
22970,2306,1,77,100.0,0,40401,96.3,198029,156445,2.9
22980,2307,1,77,100.0,0,39676,96.3,198092,156579,2.9
22990,2308,1,77,100.0,0,38909,96.3,198165,156648,2.9
23000,2309,1,77,100.0,0,38080,96.3,198202,156734,2.9
23010,2310,1,77,100.0,0,37168,96.3,198223,156818,2.9
23020,2311,1,77,100.0,0,36194,96.3,198316,156894,2.9
23030,2312,1,77,100.0,0,35176,96.3,198313,156953,2.9
23040,2313,1,77,100.0,0,34135,96.3,198341,157046,2.9
23050,2314,1,77,100.0,0,33069,96.3,198393,157133,2.9
23060,2315,1,77,100.0,0,32020,96.3,198438,157235,2.9
23070,2316,1,77,100.0,0,30966,96.3,198493,157317,2.9
23080,2317,1,77,100.0,0,29929,96.3,198523,157406,2.9
23090,2318,1,77,100.0,0,28950,96.3,198588,157496,2.9
23100,2319,1,77,100.0,0,27988,96.3,198616,157569,2.9
23110,2320,1,77,100.0,0,27084,96.3,198679,157675,2.9
23120,2321,1,77,100.0,0,26197,96.3,198703,157746,2.9
23130,2322,1,77,100.0,0,25370,96.3,198738,157805,2.9
23140,2323,1,77,100.0,0,24582,96.3,198801,157896,2.9
23150,2324,1,77,100.0,0,23812,96.3,198857,157983,2.9
23160,2325,1,77,100.0,0,23061,96.3,198890,158067,2.9
23170,2326,1,77,100.0,0,22330,96.3,198933,158154,2.9
23180,2327,1,77,100.0,0,21658,96.3,198970,158252,2.9
23190,2328,1,77,100.0,0,20986,96.3,199018,158357,2.9
23200,2329,1,77,100.0,0,20333,96.3,199049,158426,2.9
23210,2330,1,77,100.0,0,19679,96.3,199074,158449,2.9
23220,2331,1,77,100.0,0,19045,96.3,199080,158450,2.9
23230,2332,1,77,100.0,0,18389,96.3,199037,158355,2.9
23240,2333,1,77,100.0,0,17774,96.3,198930,158114,2.9
23250,2334,1,77,100.0,0,17179,96.3,198684,157624,2.9
23260,2335,1,77,100.0,0,16688,96.3,198288,156953,2.9
23270,2336,1,77,100.0,0,16341,96.3,197948,156384,2.9
23280,2337,1,77,100.0,0,16244,96.3,197710,155892,2.9
23290,2338,1,77,100.0,0,16478,96.3,197459,155445,2.9
23300,2339,1,77,100.0,0,17150,96.3,197286,155134,2.9
23310,2340,1,77,100.0,0,18281,96.3,197078,154796,2.9
23320,2341,1,77,100.0,0,19955,96.3,196934,154523,2.9
23330,2342,1,77,100.0,0,22175,96.3,196822,154296,2.9
23340,2343,1,77,100.0,0,24901,96.3,196738,154120,2.9
23350,2344,1,77,100.0,0,28094,96.3,196638,153947,2.9
23360,2345,1,77,100.0,0,31633,96.3,196564,153826,2.9
23370,2346,1,77,100.0,0,35480,96.3,196480,153716,2.9
23380,2347,1,77,100.0,0,39487,96.3,196440,153602,2.9
23390,2348,1,77,100.0,0,43483,96.3,196430,153539,2.9
23400,2349,1,77,100.0,0,47380,96.3,196395,153464,2.9
23410,2350,1,77,100.0,0,51069,96.3,196376,153415,2.9
23420,2351,1,77,100.0,0,54484,96.3,196334,153401,2.9
23430,2352,1,77,100.0,0,57495,96.3,196345,153366,2.9
23440,2353,1,77,100.0,0,60081,96.3,196349,153406,2.9
23450,2354,1,77,100.0,0,62176,96.3,196375,153458,2.9
23460,2355,1,77,100.0,0,62258,96.3,196434,153562,2.9
23470,2356,1,77,100.0,0,62258,96.3,196514,153661,2.9
23480,2357,1,77,100.0,0,62258,96.3,196563,153772,2.9
23490,2358,1,77,100.0,0,62090,96.3,196612,153887,2.9
23500,2359,1,77,100.0,0,61922,96.3,196722,154013,2.9
23510,2360,1,77,100.0,8,61494,96.3,196810,154164,2.9
23520,2361,1,77,100.0,0,60805,96.3,196866,154254,2.9
23530,2362,1,77,100.0,0,59876,96.3,196864,154284,2.9
23540,2363,1,77,100.0,0,58742,96.3,196890,154292,2.9
23550,2364,1,77,100.0,0,57442,96.3,196895,154303,2.9
23560,2365,1,77,100.0,0,56051,96.3,196849,154287,2.9
23570,2366,1,77,100.0,0,54604,96.3,196818,154318,2.9
23580,2367,1,77,100.0,0,53157,96.3,196798,154316,2.9
23590,2368,1,77,100.0,0,51767,96.3,196804,154342,2.9
23600,2369,1,77,100.0,0,50451,96.3,196858,154420,2.9
23610,2370,1,77,100.0,0,49229,96.3,196885,154505,2.9
23620,2371,1,77,100.0,0,48137,96.3,196909,154544,2.9
23630,2372,1,77,100.0,0,47157,96.3,196993,154635,2.9
23640,2373,1,77,100.0,0,46307,96.3,197015,154724,2.9
23650,2374,1,77,100.0,0,45569,96.3,197144,154825,2.9
23660,2375,1,77,100.0,0,44905,96.3,197224,154949,2.9
23670,2376,1,77,100.0,0,44316,96.3,197253,155006,2.9
23680,2377,1,77,100.0,0,43763,96.3,197321,155114,2.9
23690,2378,1,77,100.0,0,43228,96.3,197344,155222,2.9
23700,2379,1,77,100.0,0,42693,96.3,197394,155311,2.9
23710,2380,1,77,100.0,0,42137,96.3,197413,155393,2.9
23720,2381,1,77,100.0,0,41504,96.3,197466,155500,2.9
23730,2382,1,77,100.0,0,40813,96.3,197524,155565,2.9
23740,2383,1,77,100.0,0,40082,96.3,197552,155662,2.9
23750,2384,1,77,100.0,0,39273,96.3,197610,155754,2.9
23760,2385,1,77,100.0,0,38423,96.3,197649,155858,2.9
23770,2386,1,77,100.0,0,37495,96.3,197688,155971,2.9
23780,2387,1,77,100.0,0,36544,96.3,197780,156083,2.9
23790,2388,1,77,100.0,0,35552,96.3,197809,156198,2.9
23800,2389,1,77,100.0,0,34557,96.3,197912,156365,2.9
23810,2390,1,77,100.0,0,33519,96.3,197996,156411,2.9
23820,2391,1,77,100.0,0,32477,96.3,198047,156550,2.9
23830,2392,1,77,100.0,0,31432,96.3,198118,156623,2.9
23840,2393,1,77,100.0,0,30382,96.3,198191,156747,2.9
23850,2394,1,77,100.0,0,29329,96.3,198218,156827,2.9
23860,2395,1,77,100.0,0,28272,96.3,198279,156899,2.9
23870,2396,1,77,100.0,0,27232,96.3,198343,157002,2.9
23880,2397,1,77,100.0,0,26228,96.3,198326,157050,2.9
23890,2398,1,77,100.0,0,25221,96.3,198425,157158,2.9
23900,2399,1,77,100.0,0,24271,96.3,198437,157242,2.9
23910,2400,1,77,100.0,0,23357,96.3,198518,157343,2.9
23920,2401,1,77,100.0,0,22482,96.3,198560,157434,2.9
23930,2402,1,77,100.0,0,21624,96.3,198629,157535,2.9
23940,2403,1,77,100.0,0,20823,96.3,198661,157650,2.9
23950,2404,1,77,100.0,0,20041,96.3,198745,157745,2.9
23960,2405,1,77,100.0,0,19298,96.3,198804,157852,2.9
23970,2406,1,77,100.0,0,18573,96.3,198845,157953,2.9
23980,2407,1,77,100.0,0,17867,96.3,198880,157979,2.9
23990,2408,1,77,100.0,0,17161,96.3,198875,157979,2.9
24000,2409,1,77,100.0,0,16474,96.3,198856,157838,2.9
24010,2410,1,77,100.0,0,15806,96.3,198736,157583,2.9
24020,2411,1,77,100.0,0,15197,96.3,198509,157094,2.9
24030,2412,1,77,100.0,0,14687,96.3,198093,156372,2.9
24040,2413,1,77,100.0,0,14316,96.3,197766,155778,2.9
24050,2414,1,77,100.0,0,14223,96.3,197466,155301,2.9
24060,2415,1,77,100.0,0,14448,96.3,197201,154872,2.9
24070,2416,1,77,100.0,0,15090,96.3,197016,154547,2.9
24080,2417,1,77,100.0,0,16231,96.3,196786,154204,2.9
24090,2418,1,77,100.0,0,17910,96.3,196653,153954,2.9
24100,2419,1,77,100.0,0,20130,96.3,196523,153759,2.9
24110,2420,1,77,100.0,0,22852,96.3,196412,153568,2.9
24120,2421,1,77,100.0,0,26021,96.3,196325,153447,2.9
24130,2422,1,77,100.0,0,29579,96.3,196251,153326,2.9
24140,2423,1,77,100.0,0,33350,96.3,196221,153238,2.9
24150,2424,1,77,100.0,0,37275,96.3,196169,153153,2.9
24160,2425,1,77,100.0,0,41192,96.3,196134,153081,2.9
24170,2426,1,77,100.0,0,45017,96.3,196113,153062,2.9
24180,2427,1,77,100.0,0,48625,96.3,196057,153024,2.9
24190,2428,1,77,100.0,0,51892,96.3,196065,153006,2.9
24200,2429,1,77,100.0,0,54775,96.3,196071,153020,2.9
24210,2430,1,77,100.0,0,57231,96.3,196124,153061,2.9
24220,2431,1,77,100.0,0,59221,96.3,196129,153137,2.9
24230,2432,1,77,100.0,0,60722,96.3,196146,153252,2.9
24240,2433,1,77,100.0,0,61776,96.3,196215,153362,2.9
24250,2434,1,77,100.0,0,62258,96.3,196309,153510,2.9
24260,2435,1,77,100.0,0,62258,96.3,196428,153630,2.9
24270,2436,1,77,100.0,8,62078,96.3,196494,153796,2.9
24280,2437,1,77,100.0,0,61537,96.3,196549,153896,2.9
24290,2438,1,77,100.0,0,60678,96.3,196627,153974,2.9
24300,2439,1,77,100.0,0,59559,96.3,196626,154041,2.9
24310,2440,1,77,100.0,0,58262,96.3,196670,154074,2.9
24320,2441,1,77,100.0,0,56826,96.3,196698,154131,2.9
24330,2442,1,77,100.0,0,55291,96.3,196707,154163,2.9
24340,2443,1,77,100.0,0,53697,96.3,196710,154190,2.9
24350,2444,1,77,100.0,0,52102,96.3,196721,154228,2.9
24360,2445,1,77,100.0,0,50568,96.3,196771,154270,2.9
24370,2446,1,77,100.0,0,49094,96.3,196776,154312,2.9
24380,2447,1,77,100.0,0,47719,96.3,196802,154378,2.9
24390,2448,1,77,100.0,0,46484,96.3,196844,154428,2.9
24400,2449,1,77,100.0,0,45368,96.3,196902,154493,2.9
24410,2450,1,77,100.0,0,44373,96.3,196941,154595,2.9
24420,2451,1,77,100.0,0,43496,96.3,197001,154644,2.9
24430,2452,1,77,100.0,0,42720,96.3,197029,154748,2.9
24440,2453,1,77,100.0,0,42043,96.3,197073,154798,2.9
24450,2454,1,77,100.0,0,41426,96.3,197097,154902,2.9
24460,2455,1,77,100.0,0,40888,96.3,197166,154979,2.9
24470,2456,1,77,100.0,0,40350,96.3,197195,155090,2.9
24480,2457,1,77,100.0,0,39810,96.3,197263,155164,2.9
24490,2458,1,77,100.0,0,39248,96.3,197300,155275,2.9
24500,2459,1,77,100.0,0,38665,96.3,197354,155343,2.9
24510,2460,1,77,100.0,0,38018,96.3,197398,155444,2.9
24520,2461,1,77,100.0,0,37328,96.3,197463,155524,2.9
24530,2462,1,77,100.0,0,36554,96.3,197521,155659,2.9
24540,2463,1,77,100.0,0,35756,96.3,197552,155748,2.9
24550,2464,1,77,100.0,0,34894,96.3,197608,155859,2.9
24560,2465,1,77,100.0,0,33967,96.3,197711,156015,2.9
24570,2466,1,77,100.0,0,32995,96.3,197785,156116,2.9
24580,2467,1,77,100.0,0,31998,96.3,197847,156219,2.9
24590,2468,1,77,100.0,0,30956,96.3,197880,156323,2.9
24600,2469,1,77,100.0,0,29910,96.3,197940,156452,2.9
24610,2470,1,77,100.0,0,28840,96.3,198034,156545,2.9
24620,2471,1,77,100.0,0,27725,96.3,198075,156667,2.9
24630,2472,1,77,100.0,0,26627,96.3,198167,156758,2.9
24640,2473,1,77,100.0,0,25505,96.7,198182,156858,2.9
24650,2474,1,77,100.0,0,24381,96.7,198255,156955,2.9
24660,2475,1,77,100.0,0,23275,96.7,198300,157034,2.9
24670,2476,1,77,100.0,0,22209,96.7,198325,157128,2.9
24680,2477,1,77,100.0,0,21162,96.7,198412,157220,2.9
24690,2478,1,77,100.0,0,20135,96.7,198452,157314,2.9
24700,2479,1,77,100.0,0,19169,96.7,198444,157407,2.9
24710,2480,1,77,100.0,0,18224,96.7,198522,157478,2.9
24720,2481,1,77,100.0,0,17320,96.7,198593,157604,2.9
24730,2482,1,77,100.0,0,16478,96.7,198626,157686,2.9
24740,2483,1,77,100.0,0,15679,96.7,198673,157787,2.9
24750,2484,1,77,100.0,0,14922,96.7,198738,157848,2.9
24760,2485,1,77,100.0,0,14186,96.7,198781,157922,2.9
24770,2486,1,77,100.0,0,13470,96.7,198801,157898,2.9
24780,2487,1,77,100.0,0,12798,96.7,198711,157766,2.9
24790,2488,1,77,100.0,0,12168,96.7,198591,157512,2.9
24800,2489,1,77,100.0,0,11602,96.7,198409,157072,2.9
24810,2490,1,77,100.0,0,11143,96.7,198002,156413,2.9
