TIMESTAMP_MS,COUNTER,DEVICE_ID,PULSE_BPM,SPO2_PCT,SPO2_STATUS,PLETH,BATTERY_PCT,RED_ADC,IR_ADC,PERFUSION_INDEX
0,9,1,79,98.8,0,53050,8.5,113767,173304,11.2
10,10,1,79,98.8,0,51018,8.5,113879,173590,11.2
20,11,1,79,98.8,0,48852,8.5,113983,173939,11.2
30,12,1,79,98.8,0,46630,8.5,114112,174284,11.2
40,13,1,79,98.8,0,44399,8.5,114200,174597,11.2
50,14,1,79,98.8,0,42220,8.5,114324,174920,11.2
60,15,1,79,98.8,0,40130,8.5,114458,175321,11.2
70,16,1,79,98.8,0,38162,8.5,114580,175680,11.2
80,17,1,79,98.8,0,36349,8.5,114704,176048,11.2
90,18,1,79,98.8,0,34698,8.5,114855,176459,11.2
100,19,1,79,98.8,0,33213,8.5,114980,176820,11.2
110,20,1,79,98.8,0,31884,8.5,115101,177198,11.2
120,21,1,79,98.8,0,30696,8.5,115216,177521,11.2
130,22,1,79,98.8,0,29633,8.5,115309,177845,11.2
140,23,1,79,98.8,0,28684,8.5,115445,178144,11.2
150,24,1,79,98.8,0,27817,8.5,115553,178477,11.2
160,25,1,79,98.8,0,27014,8.5,115664,178765,11.2
170,26,1,79,98.8,0,26255,8.5,115757,179074,11.2
180,27,1,79,98.8,0,25527,8.5,115879,179358,11.0
190,28,1,79,98.8,0,24815,8.5,115988,179649,11.0
200,29,1,79,98.8,0,24112,8.5,116063,179898,11.0
210,30,1,79,98.8,0,23408,8.5,116167,180196,11.0
220,31,1,79,98.8,0,22702,8.5,116261,180458,11.0
230,32,1,79,98.8,0,21995,8.5,116348,180679,11.0
240,33,1,79,98.8,0,21287,8.5,116453,180951,11.0
250,34,1,79,98.8,0,20577,8.5,116548,181137,11.0
260,35,1,79,98.8,0,19878,8.5,116595,181382,11.0
270,36,1,79,98.8,0,19195,8.5,116698,181598,11.0
280,37,1,79,98.8,0,18523,8.5,116756,181808,11.0
290,38,1,79,98.8,0,17879,8.5,116856,182025,11.0
300,39,1,79,98.8,0,17263,8.5,116901,182245,11.0
310,40,1,79,98.8,0,16680,8.5,116982,182421,11.0
320,41,1,79,98.8,0,16138,8.5,117044,182657,11.0
330,42,1,79,98.8,0,15624,8.5,117147,182872,11.0
340,43,1,79,98.8,0,15150,8.5,117204,183063,11.0
350,44,1,79,98.8,0,14704,8.5,117255,183252,11.0
360,45,1,79,98.8,0,14293,8.5,117306,183428,11.0
370,46,1,79,98.8,0,13911,8.5,117347,183593,11.0
380,47,1,79,98.8,0,13568,8.5,117372,183663,11.0
390,48,1,79,98.8,0,13249,8.5,117372,183756,11.0
400,49,1,79,98.8,0,12953,8.5,117366,183775,11.0
410,50,1,79,98.8,0,12686,8.5,117277,183657,11.0
420,51,1,79,98.8,0,12448,8.5,117156,183315,11.0
430,52,1,79,98.8,0,12245,8.5,116850,182423,11.0
440,53,1,79,98.8,0,12111,8.5,116318,180935,11.0
450,54,1,79,98.8,0,12058,8.5,115614,178943,11.0
460,55,1,79,98.8,0,12150,8.5,114868,176812,11.0
470,56,1,79,98.8,0,12457,8.5,114081,174654,11.0
480,57,1,79,98.8,0,13065,8.5,113361,172666,11.0
490,58,1,79,98.8,0,14050,8.5,112727,171061,11.0
500,59,1,79,98.8,0,15483,8.5,112220,169728,11.0
510,60,1,79,98.8,0,17423,8.5,111869,168741,11.0
520,61,1,79,98.8,0,19895,8.5,111557,167947,11.0
530,62,1,79,98.8,0,22878,8.5,111343,167312,11.0
540,63,1,79,98.8,0,26316,8.5,111158,166828,11.0
550,64,1,79,98.8,0,30145,8.5,111013,166432,11.0
560,65,1,79,98.8,0,34262,8.5,110913,166127,11.0
570,66,1,79,98.8,0,38536,8.5,110833,165914,11.0
580,67,1,79,98.8,0,42820,8.5,110776,165748,11.0
590,68,1,79,98.8,0,46995,8.5,110767,165715,11.0
600,69,1,79,98.8,0,50932,8.5,110785,165729,11.0
610,70,1,79,98.8,0,54522,8.5,110850,165909,11.0
620,71,1,79,98.8,0,57674,8.5,110972,166221,11.0
630,72,1,79,98.8,0,60321,8.5,111134,166723,11.0
640,73,1,79,98.8,0,62258,8.5,111350,167299,11.0
650,74,1,79,98.8,0,62258,8.5,111607,167974,11.0
660,75,1,79,98.8,0,62258,8.5,111857,168689,11.0
670,76,1,79,98.8,0,62258,8.5,112114,169397,11.0
680,77,1,79,98.8,0,62071,8.5,112360,170030,11.0
690,78,1,79,98.8,8,61485,8.5,112563,170570,11.0
700,79,1,79,98.8,0,60490,8.5,112756,171073,11.0
710,80,1,79,98.8,0,59140,8.5,112914,171554,11.0
720,81,1,79,98.8,0,57487,8.5,113078,171967,11.0
730,82,1,79,98.8,0,55601,8.5,113217,172387,11.0
740,83,1,79,98.8,0,53551,8.5,113337,172700,11.0
750,84,1,79,98.8,0,51399,8.5,113455,173070,11.0
760,85,1,79,98.8,0,49210,8.5,113566,173378,11.0
770,86,1,79,98.8,0,47040,8.5,113675,173716,11.0
780,87,1,79,98.8,0,44932,8.5,113796,174038,11.0
790,88,1,79,98.8,0,42933,8.5,113905,174379,11.0
800,89,1,79,98.8,0,41071,8.5,114033,174706,11.0
810,90,1,79,98.8,0,39349,8.5,114128,175024,11.0
820,91,1,79,98.8,0,37795,8.5,114230,175371,11.0
830,92,1,79,98.8,0,36399,8.5,114325,175700,11.0
840,93,1,79,98.8,0,35149,8.5,114440,176032,11.0
850,94,1,79,98.8,0,34042,8.5,114497,176345,11.0
860,95,1,79,98.8,0,33050,8.5,114616,176652,11.0
870,96,1,79,98.8,0,32163,8.5,114689,176956,11.0
880,97,1,79,98.8,0,31349,8.5,114791,177218,11.0
890,98,1,79,98.8,0,30603,8.5,114894,177484,11.0
900,99,1,79,98.8,0,29898,8.5,114986,177791,11.0
910,100,1,79,98.8,0,29224,8.5,115072,178064,11.0
920,101,1,79,98.8,0,28558,8.5,115164,178326,11.0
930,102,1,79,98.8,0,27902,8.5,115219,178581,11.0
940,103,1,79,98.8,0,27243,8.5,115326,178850,11.0
950,104,1,79,98.8,0,26577,8.5,115404,179057,11.0
960,105,1,79,98.8,0,25904,8.5,115494,179349,11.0
970,106,1,79,98.8,0,25229,8.5,115612,179576,11.0
980,107,1,79,98.8,0,24547,8.5,115670,179813,11.0
990,108,1,79,98.8,0,23869,8.5,115753,180015,11.0
1000,109,1,79,98.8,0,23196,8.5,115816,180244,11.0
1010,110,1,79,98.8,0,22543,8.5,115888,180486,11.0
1020,111,1,79,98.8,0,21900,8.5,115974,180670,11.0
1030,112,1,79,98.8,0,21278,8.5,116058,180927,11.0
1040,113,1,79,98.8,0,20683,8.5,116135,181106,11.0
1050,114,1,79,98.8,0,20115,8.5,116199,181331,11.0
1060,115,1,79,98.8,0,19574,8.5,116258,181516,11.0
1070,116,1,79,98.8,0,19061,8.5,116333,181745,11.0
1080,117,1,79,98.8,0,18581,8.5,116385,181915,11.0
1090,118,1,79,98.8,0,18123,8.5,116441,182081,11.0
1100,119,1,79,98.8,0,17692,8.5,116457,182163,11.0
1110,120,1,79,98.8,0,17289,8.5,116428,182171,11.0
1120,121,1,79,98.8,0,16920,8.5,116371,181975,11.0
1130,122,1,79,98.8,0,16578,8.5,116225,181529,11.0
1140,123,1,79,98.8,0,16293,8.5,115831,180273,11.0
1150,124,1,79,98.8,0,16070,8.5,115121,178353,11.0
1160,125,1,79,98.8,0,15948,8.5,114354,176105,11.0
1170,126,1,79,98.8,0,15996,8.5,113485,173701,11.0
1180,127,1,79,98.9,0,16304,8.5,112694,171499,11.0
1190,128,1,79,98.9,0,16958,8.5,111996,169645,11.0
1200,129,1,79,98.9,0,18050,8.5,111493,168196,11.0
1210,130,1,79,98.9,0,19642,8.5,111074,167109,11.0
1220,131,1,79,98.9,0,21776,8.5,110788,166247,11.0
1230,132,1,79,98.9,0,24456,8.5,110566,165570,11.0
1240,133,1,79,98.9,0,27655,8.5,110362,165010,11.0
1250,134,1,79,98.9,0,31292,8.5,110191,164552,11.0
1260,135,1,79,98.9,0,35287,8.5,110072,164162,11.0
1270,136,1,79,98.9,0,39501,8.5,109979,163897,11.0
1280,137,1,79,98.9,0,43806,8.5,109887,163624,11.0
1290,138,1,79,98.9,0,48049,8.5,109830,163446,11.0
1300,139,1,79,98.9,0,52111,8.5,109793,163346,11.0
1310,140,1,79,98.9,0,55868,8.5,109800,163336,11.0
1320,141,1,79,98.9,0,59231,8.5,109877,163470,11.0
1330,142,1,79,98.9,0,62129,8.0,109933,163662,11.0
1340,143,1,79,98.9,0,62258,8.0,110072,164050,11.0
1350,144,1,79,98.9,0,62258,8.0,110271,164618,11.0
1360,145,1,79,98.9,0,62258,8.0,110502,165242,11.0
1370,146,1,79,98.9,0,62258,8.0,110743,165938,11.0
1380,147,1,79,98.9,0,62258,8.0,110965,166625,11.0
1390,148,1,79,98.9,8,62035,8.0,111232,167228,11.0
1400,149,1,79,98.9,0,61444,8.0,111450,167850,11.0
1410,150,1,79,98.9,0,60524,8.0,111632,168382,11.0
1420,151,1,79,98.9,0,59311,8.0,111814,168852,11.0
1430,152,1,79,98.9,0,57863,8.0,111974,169279,11.0
1440,153,1,79,98.9,0,56222,8.0,112099,169640,11.0
1450,154,1,79,98.9,0,54445,8.0,112214,170033,11.0
1460,155,1,79,98.9,0,52589,8.0,112380,170373,11.0
1470,156,1,79,98.9,0,50694,8.0,112469,170702,11.0
1480,157,1,79,98.9,0,48808,8.0,112592,171053,11.0
1490,158,1,79,98.9,0,46968,8.0,112713,171408,11.0
1500,159,1,79,98.9,0,45211,8.0,112825,171762,11.0
1510,160,1,79,98.9,0,43548,8.0,112953,172164,11.0
1520,161,1,79,98.9,0,42000,8.0,113094,172532,11.0
1530,162,1,79,98.9,0,40578,8.0,113238,172955,11.0
1540,163,1,79,98.9,0,39282,8.0,113381,173347,11.0
1550,164,1,79,98.9,0,38103,8.0,113539,173787,11.0
1560,165,1,79,98.9,0,37026,8.0,113666,174114,11.0
1570,166,1,79,98.9,0,36041,8.0,113798,174573,11.0
1580,167,1,79,98.9,0,35126,8.0,113927,174943,11.0
1590,168,1,79,98.9,0,34270,8.0,114051,175245,11.0
1600,169,1,79,98.9,0,33450,8.0,114175,175650,11.0
1610,170,1,79,98.9,0,32646,8.0,114275,175972,11.0
1620,171,1,79,98.9,0,31858,8.0,114402,176288,11.0
1630,172,1,79,98.9,0,31067,8.0,114489,176574,11.0
1640,173,1,79,98.9,0,30274,8.0,114595,176845,11.0
1650,174,1,79,98.9,0,29478,8.0,114668,177127,11.0
1660,175,1,79,98.9,0,28679,8.0,114773,177426,11.0
1670,176,1,79,98.9,0,27873,8.0,114872,177683,11.0
1680,177,1,79,98.9,0,27074,8.0,114966,177940,11.0
1690,178,1,79,98.9,0,26288,8.0,115051,178210,11.0
1700,179,1,79,98.9,0,25514,8.0,115132,178496,11.0
1710,180,1,79,98.9,0,24763,8.0,115266,178747,11.0
1720,181,1,79,98.9,0,24040,8.0,115358,179029,11.0
1730,182,1,79,98.9,0,23346,8.0,115454,179287,11.0
1740,183,1,79,98.9,0,22684,8.0,115572,179547,11.0
1750,184,1,79,98.9,0,22051,8.0,115688,179825,11.0
1760,185,1,79,98.9,0,21462,8.0,115773,180093,11.0
1770,186,1,79,98.9,0,20901,8.0,115875,180312,11.0
1780,187,1,79,98.9,0,20370,8.0,115961,180562,11.0
1790,188,1,79,98.9,0,19867,8.0,116048,180767,11.0
1800,189,1,79,98.9,0,19389,8.0,116126,180997,11.0
1810,190,1,79,98.9,0,18935,8.0,116209,181210,11.0
1820,191,1,79,98.9,0,18501,8.0,116246,181338,11.0
1830,192,1,79,98.9,0,18091,8.0,116265,181371,11.0
1840,193,1,79,98.9,0,17701,8.0,116204,181252,11.0
1850,194,1,79,98.9,0,17331,8.0,116045,180741,11.0
1860,195,1,79,98.9,0,17000,8.0,115632,179495,11.0
1870,196,1,79,98.9,0,16725,8.0,115009,177521,11.0
1880,197,1,79,98.9,0,16539,8.0,114190,175250,11.0
1890,198,1,79,98.9,0,16510,8.0,113314,172786,11.0
1900,199,1,79,98.9,0,16712,8.0,112511,170554,11.0
1910,200,1,79,98.9,0,17236,8.0,111821,168683,11.0
1920,201,1,79,98.9,0,18155,8.0,111295,167280,11.0
1930,202,1,79,98.9,0,19539,8.0,110873,166207,11.0
1940,203,1,79,98.9,0,21420,8.0,110601,165351,11.0
1950,204,1,79,98.9,0,23811,8.0,110380,164676,11.0
1960,205,1,79,98.9,0,26674,8.0,110189,164152,11.0
1970,206,1,79,98.9,0,29941,8.0,110015,163675,11.0
1980,207,1,79,98.9,0,33531,8.0,109850,163315,11.0
1990,208,1,79,98.9,0,37322,8.0,109756,162956,11.0
2000,209,1,79,98.9,0,41196,8.0,109611,162665,11.0
2010,210,1,79,98.9,0,45021,8.0,109568,162448,11.0
2020,211,1,79,98.9,0,48689,8.0,109489,162332,11.0
2030,212,1,79,98.9,0,52097,8.0,109475,162248,11.0
2040,213,1,79,98.9,0,55152,8.0,109460,162243,11.0
2050,214,1,79,98.9,0,57796,8.0,109539,162396,11.0
2060,215,1,79,98.9,0,59985,8.0,109601,162665,11.0
2070,216,1,79,98.9,0,61690,8.0,109758,163125,11.0
2080,217,1,79,98.9,0,62258,8.0,109951,163688,11.0
2090,218,1,79,98.9,0,62258,8.0,110194,164336,11.0
2100,219,1,79,98.9,0,62258,8.0,110433,165038,11.0
2110,220,1,79,98.9,0,62146,8.0,110688,165713,11.0
2120,221,1,79,98.9,8,61672,8.0,110928,166353,11.0
2130,222,1,79,98.9,0,60865,8.0,111139,166895,11.0
2140,223,1,79,98.9,0,59764,8.0,111342,167418,11.0
2150,224,1,79,98.9,0,58418,8.0,111512,167910,11.0
2160,225,1,79,98.9,0,56874,8.0,111683,168334,11.0
2170,226,1,79,98.9,0,55172,8.0,111820,168746,11.0
2180,227,1,79,98.9,0,53364,8.0,111984,169139,10.7
2190,228,1,79,98.9,0,51493,8.0,112112,169500,10.7
2200,229,1,79,98.9,0,49607,8.0,112225,169866,10.7
2210,230,1,79,98.9,0,47744,8.0,112363,170265,10.7
2220,231,1,79,98.9,0,45928,8.0,112504,170656,10.7
2230,232,1,79,98.9,0,44192,8.0,112648,171082,10.7
2240,233,1,79,98.9,0,42556,8.0,112809,171529,10.7
2250,234,1,79,98.9,0,41024,8.0,112968,171980,10.7
2260,235,1,79,98.9,0,39601,8.0,113138,172409,10.7
2270,236,1,79,98.9,0,38287,8.0,113276,172832,10.7
2280,237,1,79,98.9,0,37068,8.0,113410,173272,10.7
2290,238,1,79,98.9,0,35938,8.0,113546,173632,10.7
2300,239,1,79,98.9,0,34873,8.0,113680,174018,10.7
2310,240,1,79,98.9,0,33869,8.0,113797,174386,10.7
2320,241,1,79,98.9,0,32916,8.0,113910,174728,10.7
2330,242,1,79,98.9,0,31988,8.0,113996,175044,10.7
2340,243,1,79,98.9,0,31087,8.0,114089,175359,10.7
2350,244,1,79,98.9,0,30202,8.0,114217,175631,10.7
2360,245,1,79,98.9,0,29325,8.0,114321,175975,10.7
2370,246,1,79,98.9,0,28465,8.0,114404,176262,10.7
2380,247,1,79,98.9,0,27617,8.0,114527,176557,10.7
2390,248,1,79,98.9,0,26781,8.0,114634,176851,10.7
2400,249,1,79,98.9,0,25954,8.0,114734,177122,10.7
2410,250,1,79,98.9,0,25149,8.0,114819,177416,10.7
2420,251,1,79,98.9,0,24368,8.0,114938,177698,10.7
2430,252,1,79,98.9,0,23615,8.0,115027,177955,10.7
2440,253,1,79,98.9,0,22886,8.0,115126,178192,10.7
2450,254,1,79,98.9,0,22190,8.0,115237,178498,10.7
2460,255,1,79,98.9,0,21524,8.0,115323,178749,10.7
2470,256,1,79,98.9,0,20887,8.0,115430,178995,10.7
2480,257,1,79,98.9,0,20285,8.0,115503,179246,10.7
2490,258,1,79,98.9,0,19712,8.0,115596,179487,10.7
2500,259,1,79,98.9,0,19170,8.0,115683,179675,10.7
2510,260,1,79,98.9,0,18662,8.0,115739,179904,10.7
2520,261,1,79,98.9,0,18173,8.0,115790,180174,10.7
2530,262,1,79,98.9,0,17710,8.0,115917,180413,10.7
2540,263,1,79,98.9,0,17272,8.0,115986,180590,10.7
2550,264,1,79,98.9,0,16854,8.0,116046,180773,10.7
2560,265,1,79,98.9,0,16457,8.0,116088,180899,10.7
2570,266,1,79,98.9,0,16079,8.0,116074,180917,10.7
2580,267,1,79,98.9,0,15722,8.0,116019,180714,10.7
2590,268,1,79,98.9,0,15395,8.0,115825,180206,10.7
2600,269,1,79,98.9,0,15104,8.0,115349,178817,10.7
2610,270,1,79,98.9,0,14874,8.0,114656,176774,10.7
2620,271,1,79,98.9,0,14753,8.0,113833,174422,10.7
2630,272,1,79,98.9,0,14800,8.0,112938,171982,10.7
2640,273,1,79,98.9,0,15090,8.0,112133,169740,10.7
2650,274,1,79,98.9,0,15724,8.0,111476,167970,10.7
2660,275,1,79,98.9,0,16772,8.0,110985,166611,10.7
2670,276,1,79,98.9,0,18299,8.0,110616,165554,10.7
2680,277,1,79,98.9,0,20345,8.0,110304,164738,10.7
2690,278,1,79,98.9,0,22890,8.0,110098,164100,10.7
2700,279,1,79,98.9,0,25912,8.0,109932,163581,10.7
2710,280,1,79,98.9,0,29336,8.0,109777,163186,10.7
2720,281,1,79,98.9,0,33069,8.0,109650,162824,10.7
2730,282,1,79,98.9,0,36992,8.0,109558,162560,10.7
2740,283,1,79,98.9,0,40974,8.0,109486,162325,10.7
2750,284,1,79,98.9,0,44886,8.0,109443,162222,10.7
2760,285,1,79,98.9,0,48610,8.0,109400,162138,10.7
2770,286,1,79,98.9,0,52039,8.0,109410,162131,10.7
2780,287,1,79,98.9,0,55086,8.0,109449,162214,10.7
2790,288,1,79,98.9,0,57692,8.0,109526,162444,10.7
2800,289,1,79,98.9,0,59808,8.0,109682,162813,10.7
2810,290,1,79,98.9,0,61418,8.0,109869,163345,10.7
2820,291,1,79,98.9,0,62258,8.0,110083,163970,10.7
2830,292,1,79,98.9,0,62258,8.0,110325,164651,10.7
2840,293,1,79,98.9,0,62258,8.0,110590,165345,10.7
2850,294,1,79,98.9,8,61970,8.0,110828,166027,10.7
2860,295,1,79,98.9,0,61298,8.0,111022,166633,10.7
2870,296,1,79,98.9,0,60283,8.0,111234,167172,10.7
2880,297,1,79,98.9,0,58976,8.0,111415,167673,10.7
2890,298,1,79,98.9,0,57424,8.0,111589,168149,10.7
2900,299,1,79,98.9,0,55680,8.0,111744,168577,10.7
2910,300,1,79,98.9,0,53795,8.0,111896,168950,10.7
2920,301,1,79,98.9,0,51830,8.0,112012,169314,10.7
2930,302,1,79,98.9,0,49824,8.0,112144,169688,10.7
2940,303,1,79,98.9,0,47826,8.0,112215,170071,10.7
4680,477,1,80,99.0,0,19071,8.0,115216,178532,10.7
4690,478,1,80,99.0,0,18371,8.0,115296,178749,10.7
4700,479,1,80,99.0,0,17724,8.0,115382,179003,10.7
4710,480,1,80,99.0,0,17132,8.0,115478,179243,10.7
4720,481,1,80,99.0,0,16583,8.0,115551,179464,10.7
4730,482,1,80,99.0,0,16082,8.0,115624,179698,10.7
4740,483,1,80,99.0,0,15625,8.0,115707,179925,10.7
4750,484,1,80,99.0,0,15206,8.0,115774,180144,10.7
4760,485,1,80,99.0,0,14814,8.0,115814,180322,10.7
4770,486,1,80,99.0,0,14444,8.0,115875,180493,10.7
4780,487,1,80,99.0,0,14096,8.0,115944,180601,10.7
4790,488,1,80,99.0,0,13770,8.0,115918,180586,10.7
4800,489,1,80,99.0,0,13460,8.0,115827,180361,10.7
4810,490,1,80,99.0,0,13178,8.0,115602,179742,10.7
4820,491,1,80,99.0,0,12929,8.0,115110,178247,10.7
4830,492,1,80,99.0,0,12745,8.0,114357,176096,10.7
4840,493,1,80,99.0,0,12678,8.0,113490,173629,10.7
4850,494,1,80,99.0,0,12791,8.0,112611,171180,10.7
4860,495,1,80,99.0,0,13186,8.0,111809,168945,10.7
4870,496,1,80,99.0,0,13951,8.0,111176,167190,10.7
4880,497,1,80,99.0,0,15179,8.0,110687,165917,10.7
4890,498,1,80,99.0,0,16933,8.0,110354,164901,10.7
4900,499,1,80,99.0,0,19241,8.0,110062,164113,10.7
4910,500,1,80,99.0,0,22100,8.0,109857,163493,10.7
4920,501,1,80,99.0,0,25459,8.0,109699,163021,10.7
4930,502,1,80,99.0,0,29243,8.0,109565,162605,10.7
4940,503,1,80,99.0,0,33329,8.0,109424,162270,10.7
4950,504,1,80,99.0,0,37604,8.0,109358,162016,10.7
4960,505,1,80,99.0,0,41918,8.0,109260,161810,10.7
4970,506,1,80,99.0,0,46135,8.0,109244,161678,10.7
4980,507,1,80,99.0,0,50127,8.0,109205,161627,10.7
4990,508,1,80,99.0,0,53779,8.0,109239,161684,10.7
5000,509,1,80,99.0,0,57010,8.0,109307,161857,10.7
5010,510,1,80,99.0,0,59734,8.0,109402,162161,10.7
5020,511,1,80,99.0,0,61932,8.0,109573,162618,10.7
5030,512,1,80,99.0,0,62258,8.0,109850,163185,10.7
5040,513,1,80,99.0,0,62258,8.0,110018,163844,10.7
5050,514,1,80,99.0,0,62258,8.0,110271,164496,10.7
5060,515,1,80,99.0,0,62227,8.0,110485,165137,10.7
5070,516,1,80,99.0,8,61831,8.0,110737,165740,10.7
5080,517,1,80,99.0,0,61045,8.0,110917,166289,10.7
5090,518,1,80,99.0,0,59920,8.0,111106,166791,10.7
5100,519,1,80,99.0,0,58507,8.0,111240,167229,10.7
5110,520,1,80,99.0,0,56867,8.0,111409,167635,10.7
5120,521,1,80,99.0,0,55050,8.0,111535,167987,10.7
5130,522,1,80,99.0,0,53122,8.0,111603,168370,10.7
5140,523,1,80,99.0,0,51133,8.0,111789,168658,10.7
5150,524,1,80,99.0,0,49134,8.0,111857,169010,10.7
5160,525,1,80,99.0,0,47174,8.0,111978,169322,10.7
5170,526,1,80,99.0,0,45288,8.0,112125,169721,10.7
5180,527,1,80,99.0,0,43501,8.0,112259,170120,10.4
5190,528,1,80,99.0,0,41835,8.0,112423,170515,10.4
5200,529,1,80,99.0,0,40297,8.0,112573,170978,10.4
5210,530,1,80,99.0,0,38890,8.0,112724,171394,10.4
5220,531,1,80,99.0,0,37613,8.0,112880,171859,10.4
5230,532,1,80,99.0,0,36445,8.0,113040,172250,10.4
5240,533,1,80,99.0,0,35372,8.0,113172,172718,10.4
5250,534,1,80,99.0,0,34372,8.0,113330,173157,10.4
5260,535,1,80,99.0,0,33431,8.0,113487,173540,10.4
5270,536,1,80,99.0,0,32528,8.0,113618,173999,10.4
5280,537,1,80,99.0,0,31642,8.0,113742,174344,10.4
5290,538,1,80,99.0,0,30758,8.0,113848,174661,10.4
5300,539,1,80,99.0,0,29871,8.0,113970,174940,10.4
5310,540,1,80,99.0,0,28966,8.0,114104,175307,10.4
5320,541,1,80,99.0,0,28047,8.0,114188,175639,10.4
5330,542,1,80,99.0,0,27115,8.0,114315,175955,10.4
5340,543,1,80,99.0,0,26175,8.0,114415,176223,10.4
5350,544,1,80,99.0,0,25243,8.0,114503,176528,10.4
5360,545,1,80,99.0,0,24314,8.0,114612,176800,10.4
5370,546,1,80,99.0,0,23399,8.0,114710,177076,10.4
5380,547,1,80,99.0,0,22503,8.0,114775,177326,10.4
5390,548,1,80,99.0,0,21637,8.0,114867,177584,10.4
5400,549,1,80,99.0,0,20818,8.0,114948,177845,10.4
5410,550,1,80,99.0,0,20039,8.0,115040,178054,10.4
5420,551,1,80,99.0,0,19308,8.0,115107,178324,10.4
5430,552,1,80,99.0,0,18629,8.0,115187,178539,10.4
5440,553,1,80,99.0,0,17997,8.0,115263,178740,10.4
5450,554,1,80,99.0,0,17417,8.0,115352,178988,10.4
5460,555,1,80,99.0,0,16880,8.0,115419,179196,10.4
5470,556,1,80,99.0,0,16391,8.0,115490,179426,10.4
5480,557,1,80,99.0,0,15938,8.0,115548,179634,10.4
5490,558,1,80,99.0,0,15523,8.0,115638,179832,10.4
5500,559,1,80,99.0,0,15140,8.0,115689,180052,10.4
5510,560,1,80,99.0,0,14783,8.0,115758,180221,10.4
5520,561,1,80,99.0,0,14447,8.0,115804,180332,10.4
5530,562,1,80,99.0,0,14139,8.0,115770,180287,10.4
5540,563,1,80,99.0,0,13846,8.0,115689,180034,10.4
5550,564,1,80,99.0,0,13586,8.0,115425,179209,10.4
5560,565,1,80,99.0,0,13363,8.0,114852,177569,10.4
5570,566,1,80,99.0,0,13210,8.0,114078,175305,10.4
5580,567,1,80,99.0,0,13175,8.0,113186,172797,10.4
5590,568,1,80,99.0,0,13345,8.0,112296,170315,10.4
5600,569,1,80,99.0,0,13796,8.0,111535,168209,10.4
5610,570,1,80,99.0,0,14629,8.0,110904,166584,10.4
5620,571,1,80,99.0,0,15937,8.0,110461,165292,10.4
5630,572,1,80,99.0,0,17765,8.0,110145,164387,10.4
5640,573,1,80,99.0,0,20140,8.0,109882,163701,10.4
5650,574,1,80,99.0,0,23045,8.0,109721,163122,10.4
5660,575,1,80,99.0,0,26428,8.0,109577,162691,10.4
5670,576,1,80,99.0,0,30201,8.0,109445,162302,10.4
5680,577,1,80,99.0,0,34254,8.0,109348,162060,10.4
5690,578,1,80,99.0,0,38447,8.0,109276,161822,10.4
5700,579,1,80,99.0,0,42656,8.0,109218,161678,10.4
5710,580,1,80,99.0,0,46732,8.0,109188,161585,10.4
5720,581,1,80,99.0,0,50554,8.0,109175,161586,10.4
5730,582,1,80,99.0,0,54016,8.0,109208,161701,10.4
5740,583,1,80,99.0,0,57033,8.0,109324,161943,10.4
5750,584,1,80,99.0,0,59538,8.0,109470,162372,10.4
5760,585,1,80,99.0,0,61508,8.0,109677,162916,10.4
5770,586,1,80,99.0,0,62258,8.0,109896,163586,10.4
5780,587,1,80,99.0,0,62258,8.0,110156,164250,10.4
5790,588,1,80,99.0,0,62258,8.0,110405,164982,10.4
5800,589,1,80,99.0,0,62098,8.0,110662,165663,10.4
5810,590,1,80,99.0,8,61501,8.0,110880,166272,10.4
5820,591,1,80,99.0,0,60519,8.0,111077,166802,10.4
5830,592,1,80,99.0,0,59194,8.0,111232,167289,10.4
5840,593,1,80,99.0,0,57582,8.0,111413,167646,10.4
5850,594,1,80,99.0,0,55755,8.0,111545,168094,10.4
5860,595,1,80,99.0,0,53775,8.0,111650,168368,10.4
5870,596,1,80,99.0,0,51707,8.0,111778,168767,10.4
5880,597,1,80,99.0,0,49597,8.0,111904,169116,10.4
5890,598,1,80,99.0,0,47507,8.0,112014,169470,10.4
5900,599,1,80,99.0,0,45471,8.0,112180,169864,10.4
5910,600,1,80,99.0,0,43531,8.0,112292,170230,10.4
5920,601,1,80,99.0,0,41717,8.0,112446,170690,10.4
5930,602,1,80,99.0,0,40040,8.0,112618,171128,10.4
5940,603,1,80,99.0,0,38504,8.0,112769,171590,10.4
5950,604,1,80,99.0,0,37109,8.0,112928,172026,10.4
5960,605,1,80,99.0,0,35836,8.0,113089,172510,10.4
5970,606,1,80,99.0,0,34679,8.0,113249,172908,10.4
5980,607,1,80,99.0,0,33617,8.0,113400,173338,10.4
5990,608,1,80,99.0,0,32625,8.0,113544,173753,10.4
6000,609,1,80,99.0,0,31676,8.0,113684,174119,10.4
6010,610,1,80,99.0,0,30761,8.0,113813,174506,10.4
6020,611,1,80,99.0,0,29864,8.0,113945,174838,10.4
6030,612,1,80,99.0,0,28969,8.0,114057,175103,10.4
6040,613,1,80,99.0,0,28066,8.0,114178,175511,10.4
6050,614,1,80,99.0,0,27155,8.0,114259,175799,10.4
6060,615,1,80,99.0,0,26231,8.0,114376,176123,10.4
6070,616,1,80,99.0,0,25309,8.0,114483,176396,10.4
6080,617,1,80,99.0,0,24386,8.0,114586,176668,10.4
6090,618,1,80,99.0,0,23471,8.0,114671,176935,10.4
6100,619,1,80,99.0,0,22565,8.0,114756,177219,10.4
6110,620,1,80,99.0,0,21689,8.0,114848,177444,10.4
6120,621,1,80,99.0,0,20844,8.0,114953,177725,10.4
6130,622,1,80,99.0,0,20035,8.0,115046,177864,10.4
6140,623,1,80,99.0,0,19269,8.0,115115,178201,10.4
6150,624,1,80,99.0,0,18549,8.0,115220,178459,10.4
6160,625,1,80,99.0,0,17883,8.0,115306,178700,10.4
6170,626,1,80,99.0,0,17265,8.0,115372,178914,10.4
6180,627,1,80,99.0,0,16700,8.0,115457,179172,10.4
6190,628,1,80,99.0,0,16178,8.0,115558,179399,10.4
6200,629,1,80,99.0,0,15688,8.0,115632,179637,10.4
6210,630,1,80,99.0,0,15241,8.0,115721,179860,10.4
6220,631,1,80,99.0,0,14827,8.0,115785,180077,10.4
6230,632,1,80,99.0,0,14439,8.0,115861,180139,10.4
6240,633,1,80,99.0,0,14078,8.0,115905,180461,10.4
6250,634,1,80,99.0,0,13734,8.0,115919,180490,10.4
6260,635,1,80,99.0,0,13400,8.0,115920,180452,10.4
6270,636,1,80,99.0,0,13099,8.0,115786,180131,10.4
6280,637,1,80,99.0,0,12820,8.0,115453,179068,10.4
6290,638,1,80,99.0,0,12584,8.0,114786,177200,10.4
6300,639,1,80,99.0,0,12430,8.0,114014,174856,10.4
6310,640,1,80,99.0,0,12423,8.0,113093,172268,10.4
6320,641,1,80,99.0,0,12634,8.0,112215,169905,10.4
6330,642,1,80,99.0,0,13166,8.0,111490,167943,10.4
6340,643,1,80,99.0,0,14114,8.0,110963,166476,10.4
6350,644,1,80,99.0,0,15558,8.0,110580,165339,10.4
6360,645,1,80,99.0,0,17544,8.0,110277,164547,10.4
6370,646,1,80,99.0,0,20085,8.0,110066,163917,10.4
6380,647,1,80,99.0,0,23144,8.0,109911,163408,10.4
6390,648,1,80,99.0,0,26666,8.0,109754,163058,10.4
6400,649,1,80,99.0,0,30545,8.0,109663,162753,10.4
6410,650,1,80,99.0,0,34663,8.0,109593,162485,10.4
6420,651,1,80,99.0,0,38878,8.0,109523,162315,10.4
6430,652,1,80,99.0,0,43060,8.0,109486,162189,10.4
6440,653,1,80,99.0,0,47078,8.0,109461,162159,10.4
6450,654,1,80,99.0,0,50796,8.0,109492,162190,10.4
6460,655,1,80,99.0,0,54115,8.0,109541,162343,10.4
6470,656,1,80,99.0,0,56974,8.0,109664,162678,10.4
6480,657,1,80,99.0,0,59308,8.0,109846,163191,10.4
6490,658,1,80,99.0,0,61092,8.0,110067,163771,10.4
6500,659,1,80,99.0,0,62258,8.0,110326,164499,10.4
6510,660,1,80,99.0,0,62258,8.0,110591,165249,10.4
6520,661,1,80,99.0,0,62252,8.0,110813,165944,10.4
6530,662,1,80,99.0,8,61903,8.0,111077,166583,10.4
6540,663,1,80,99.0,0,61107,8.0,111257,167140,10.4
6550,664,1,80,99.0,0,59931,8.0,111464,167658,10.4
6560,665,1,80,99.0,0,58423,8.0,111614,168071,10.4
6570,666,1,80,99.0,0,56641,8.0,111748,168499,10.4
6580,667,1,80,99.0,0,54646,8.0,111893,168822,10.4
6590,668,1,80,99.0,0,52528,8.0,112001,169150,10.4
6600,669,1,80,99.0,0,50333,8.0,112117,169429,10.4
6610,670,1,80,99.0,0,48127,8.0,112231,169745,10.4
6620,671,1,80,99.0,0,45962,8.0,112316,170069,10.4
6630,672,1,80,99.0,0,43887,8.0,112454,170413,10.4
6640,673,1,80,99.0,0,41937,8.0,112572,170780,10.4
6650,674,1,80,99.0,0,40130,8.0,112699,171195,10.4
6660,675,1,80,99.0,0,38487,8.0,112840,171605,10.4
6670,676,1,80,99.0,0,37003,8.0,113010,172041,10.4
6680,677,1,80,99.0,0,35667,8.0,113139,172451,10.4
6690,678,1,80,99.0,0,34474,8.0,113303,172870,10.4
6700,679,1,80,99.0,0,33408,8.0,113441,173280,10.4
6710,680,1,80,99.0,0,32437,8.0,113586,173706,10.4
6720,681,1,80,99.0,0,31540,8.0,113722,174122,10.4
6730,682,1,80,99.0,0,30683,8.0,113852,174500,10.4
6740,683,1,80,99.0,0,29851,8.0,113991,174843,10.4
6750,684,1,80,99.0,0,29021,8.0,114096,175163,10.4
6760,685,1,80,99.0,0,28189,8.0,114195,175475,10.4
6770,686,1,80,99.0,0,27338,8.0,114316,175837,10.4
6780,687,1,80,99.0,0,26467,8.0,114437,176109,10.4
6790,688,1,80,99.0,0,25572,8.0,114503,176414,10.4
6800,689,1,80,99.0,0,24658,8.0,114610,176692,10.4
6810,690,1,80,99.0,0,23731,8.0,114741,176956,10.4
6820,691,1,80,99.0,0,22808,8.0,114822,177245,10.4
6830,692,1,80,99.0,0,21888,8.0,114912,177517,10.4
6840,693,1,80,99.0,0,20995,8.0,115008,177756,10.4
6850,694,1,80,99.0,0,20122,8.0,115081,177969,10.4
6860,695,1,80,99.0,0,19288,8.0,115163,178222,10.4
6870,696,1,80,99.0,0,18493,8.0,115279,178451,10.4
6880,697,1,80,99.0,0,17747,8.0,115332,178690,10.4
6890,698,1,80,99.0,0,17051,8.0,115399,178917,10.4
6900,699,1,80,99.0,0,16410,8.0,115474,179133,10.4
6910,700,1,80,99.0,0,15826,8.0,115583,179380,10.4
6920,701,1,80,99.0,0,15293,8.0,115636,179586,10.4
6930,702,1,80,99.0,0,14804,8.0,115716,179783,10.4
6940,703,1,80,99.0,0,14360,8.0,115775,180014,10.4
6950,704,1,80,99.0,0,13956,8.0,115837,180218,10.4
6960,705,1,80,99.0,0,13586,8.0,115885,180333,10.4
6970,706,1,80,99.0,0,13233,8.0,115921,180459,10.4
6980,707,1,80,99.0,0,12914,8.0,115892,180403,10.4
6990,708,1,80,99.0,0,12623,8.0,115784,180051,10.4
7000,709,1,80,99.0,0,12361,8.0,115405,178930,10.4
7010,710,1,80,99.0,0,12144,8.0,114747,176941,10.4
7020,711,1,80,99.0,0,12018,8.0,113842,174376,10.4
7030,712,1,80,99.0,0,12045,8.0,112846,171523,10.4
7040,713,1,80,99.0,0,12312,8.0,111855,168906,10.4
7050,714,1,80,99.0,0,12931,8.0,111099,166798,10.4
7060,715,1,80,99.0,0,14012,8.0,110532,165268,10.4
7070,716,1,80,99.0,0,15641,8.0,110126,164084,10.4
7080,717,1,80,99.0,0,17875,8.0,109800,163199,10.4
7090,718,1,80,99.0,0,20729,8.0,109560,162481,10.4
7100,719,1,80,99.0,0,24172,8.0,109361,161892,10.4
7110,720,1,80,99.0,0,28127,8.0,109181,161430,10.4
7120,721,1,80,99.0,0,32480,8.0,109060,161012,10.4
7130,722,1,80,99.0,0,37107,8.0,108936,160663,10.4
7140,723,1,80,99.0,0,41853,8.0,108826,160334,10.4
7150,724,1,80,99.0,0,46567,8.0,108737,160093,10.4
7160,725,1,80,99.0,0,51095,8.0,108679,159926,10.4
7170,726,1,80,99.0,0,55301,8.0,108646,159826,10.4
7180,727,1,80,99.0,0,59088,8.0,108634,159824,10.3
7190,728,1,80,99.0,0,62258,8.0,108684,159942,10.3
7200,729,1,80,99.0,0,62258,8.0,108793,160216,10.3
7210,730,1,80,99.0,0,62258,8.0,108942,160676,10.3
7220,731,1,80,99.0,0,62258,8.0,109157,161205,10.3
7230,732,1,80,99.0,0,62258,8.0,109381,161862,10.3
7240,733,1,80,99.0,0,62258,8.0,109614,162473,10.3
7250,734,1,80,99.0,0,62176,8.0,109823,163115,10.3
7260,735,1,80,99.0,8,61745,8.0,110061,163697,10.3
7270,736,1,80,99.0,0,60984,8.0,110205,164176,10.3
7280,737,1,80,99.0,0,59937,8.0,110362,164605,10.3
7290,738,1,80,99.0,0,58652,8.0,110493,164990,10.3
7300,739,1,80,99.0,0,57182,8.0,110629,165296,10.3
7310,740,1,80,99.0,0,55577,8.0,110704,165578,10.3
7320,741,1,80,99.0,0,53886,8.0,110823,165852,10.3
7330,742,1,80,99.0,0,52155,8.0,110896,166145,10.3
7340,743,1,80,99.0,0,50433,8.0,111000,166394,10.3
7350,744,1,80,99.0,0,48760,8.0,111100,166729,10.3
7360,745,1,80,99.0,0,47159,8.0,111201,167010,10.3
7370,746,1,80,99.0,0,45652,8.0,111336,167371,10.3
7380,747,1,80,99.0,0,44262,8.0,111474,167770,10.3
7390,748,1,80,99.0,0,42989,8.0,111629,168194,10.3
7400,749,1,80,99.0,0,41837,8.0,111766,168616,10.3
7410,750,1,80,99.0,0,40788,8.0,111940,169092,10.3
7420,751,1,80,99.0,0,39838,8.0,112107,169531,10.3
7430,752,1,80,99.0,0,38968,8.0,112257,170066,10.3
7440,753,1,80,99.0,0,38147,8.0,112431,170570,10.3
7450,754,1,80,99.0,0,37356,8.0,112598,171062,10.3
7460,755,1,80,99.0,0,36580,8.0,112768,171504,10.3
7470,756,1,80,99.0,0,35798,8.0,112935,171974,10.3
7480,757,1,80,99.0,0,34994,8.0,113082,172388,10.3
7490,758,1,80,99.0,0,34155,8.0,113222,172808,10.3
7500,759,1,80,99.0,0,33280,8.0,113369,173175,10.3
7510,760,1,80,99.0,0,32365,8.0,113453,173527,10.3
7520,761,1,80,99.0,0,31403,8.0,113582,173855,10.3
7530,762,1,80,99.0,0,30406,8.0,113695,174191,10.3
7540,763,1,80,99.0,0,29385,8.0,113818,174503,10.3
7550,764,1,80,99.0,0,28362,8.0,113911,174802,10.3
7560,765,1,80,99.0,0,27336,8.0,113998,175106,10.3
7570,766,1,80,99.0,0,26325,8.0,114090,175347,10.3
7580,767,1,80,99.0,0,25350,8.0,114196,175612,10.3
7590,768,1,80,99.0,0,24410,8.0,114282,175906,10.3
7600,769,1,80,99.0,0,23520,8.0,114386,176168,10.3
7610,770,1,80,99.0,0,22691,8.0,114469,176422,10.3
7620,771,1,80,99.0,0,21921,8.0,114537,176658,10.3
7630,772,1,80,99.0,0,21217,8.0,114630,176938,10.3
7640,773,1,80,99.0,0,20569,8.0,114706,177145,10.3
7650,774,1,80,99.0,0,19977,8.0,114806,177414,10.3
7660,775,1,80,99.0,0,19442,8.0,114884,177649,10.3
7670,776,1,80,99.0,0,18959,8.0,114968,177887,10.3
7680,777,1,80,99.0,0,18513,8.0,115059,178128,10.3
7690,778,1,80,99.0,0,18111,8.0,115145,178359,10.3
7700,779,1,80,99.0,0,17741,8.0,115183,178497,10.3
7710,780,1,80,99.0,0,17395,8.0,115221,178565,10.3
7720,781,1,80,99.0,0,17063,8.0,115180,178481,10.3
7730,782,1,80,99.0,0,16755,8.0,115008,177995,10.3
7740,783,1,80,99.0,0,16476,8.0,114572,176612,10.3
7750,784,1,80,99.0,0,16240,8.0,113774,174313,10.3
7760,785,1,80,99.0,0,16090,8.0,112827,171610,10.3
7770,786,1,80,99.0,0,16095,8.0,111787,168714,10.3
7780,787,1,80,99.0,0,16337,8.0,110864,166224,10.3
7790,788,1,80,99.0,0,16912,8.0,110194,164337,10.3
7800,789,1,80,99.0,0,17909,8.0,109681,162940,10.3
7810,790,1,80,99.0,0,19402,8.0,109306,161851,10.3
7820,791,1,80,99.0,0,21425,8.0,108986,160965,10.3
7830,792,1,80,99.0,0,23982,8.0,108736,160259,10.3
7840,793,1,80,99.0,0,27036,8.0,108517,159642,10.3
7850,794,1,80,99.0,0,30504,8.0,108344,159125,10.3
7860,795,1,80,99.0,0,34307,8.0,108166,158676,10.3
7870,796,1,80,99.0,0,38309,8.0,108059,158311,10.3
7880,797,1,80,99.0,0,42390,8.0,107944,158000,10.3
7890,798,1,80,99.0,0,46406,8.0,107847,157732,10.3
7900,799,1,80,99.0,0,50245,8.0,107783,157547,10.3
7910,800,1,80,99.0,0,53790,8.0,107711,157387,10.3
7920,801,1,80,99.0,0,56965,8.0,107703,157370,10.3
7930,802,1,80,99.0,0,59705,8.0,107740,157460,10.3
7940,803,1,80,99.0,0,61969,7.8,107848,157736,10.3
7950,804,1,80,99.0,0,62258,7.8,107989,158107,10.3
7960,805,1,80,99.0,0,62258,7.8,108174,158614,10.3
7970,806,1,80,99.0,0,62258,7.8,108389,159232,10.3
7980,807,1,80,99.0,0,62258,7.8,108622,159885,10.3
7990,808,1,80,99.0,0,62158,7.8,108860,160527,10.3
8000,809,1,80,99.0,8,61747,7.8,109046,161094,10.3
8010,810,1,80,99.0,0,61033,7.8,109232,161621,10.3
8020,811,1,80,99.0,0,60056,7.8,109399,162050,10.3
8030,812,1,80,99.0,0,58859,7.8,109534,162426,10.3
8040,813,1,80,99.0,0,57490,7.8,109661,162751,10.3
8050,814,1,80,99.0,0,55984,7.8,109759,163081,10.3
8060,815,1,80,99.0,0,54396,7.8,109870,163392,10.3
8070,816,1,80,99.0,0,52766,7.8,109973,163642,10.3
8080,817,1,80,99.0,0,51135,7.8,110076,163936,10.3
8090,818,1,80,99.0,0,49539,7.8,110170,164259,10.3
8100,819,1,80,99.0,0,48003,7.8,110295,164612,10.3
8110,820,1,80,99.0,0,46548,7.8,110443,164976,10.3
8120,821,1,80,99.0,0,45192,7.8,110564,165364,10.3
8130,822,1,80,99.0,0,43934,7.8,110745,165830,10.3
8140,823,1,80,99.0,0,42783,7.8,110883,166276,10.3
8150,824,1,80,99.0,0,41727,7.8,111052,166763,10.3
8160,825,1,80,99.0,0,40756,7.8,111242,167274,10.3
8170,826,1,80,99.0,0,39853,7.8,111413,167782,10.3
8180,827,1,81,99.1,0,39005,7.8,111597,168287,10.3
8190,828,1,81,99.1,0,38181,7.8,111766,168783,10.3
8200,829,1,81,99.1,0,37372,7.8,111953,169291,10.3
8210,830,1,81,99.1,0,36557,7.8,112127,169779,10.3
8220,831,1,81,99.1,0,35721,7.8,112286,170247,10.3
8230,832,1,81,99.1,0,34851,7.8,112441,170677,10.3
8240,833,1,81,99.1,0,33951,7.8,112593,171083,10.3
8250,834,1,81,99.1,0,33003,7.8,112741,171497,10.3
8260,835,1,81,99.1,0,32025,7.8,112858,171866,10.3
8270,836,1,81,99.1,0,31012,7.8,112999,172213,10.3
8280,837,1,81,99.1,0,29981,7.8,113129,172577,10.3
8290,838,1,81,99.1,0,28934,7.8,113234,172906,10.3
8300,839,1,81,99.1,0,27888,7.8,113357,173230,10.3
8310,840,1,81,99.1,0,26857,7.8,113457,173507,10.3
8320,841,1,81,99.1,0,25854,7.8,113573,173819,10.3
8330,842,1,81,99.1,0,24886,7.8,113680,174129,10.3
8340,843,1,81,99.1,0,23964,7.8,113762,174402,10.3
8350,844,1,81,99.1,0,23100,7.8,113887,174707,10.3
8360,845,1,81,99.1,0,22288,7.8,114007,174989,10.3
8370,846,1,81,99.1,0,21534,7.8,114080,175264,10.3
8380,847,1,81,99.1,0,20843,7.8,114193,175574,10.3
8390,848,1,81,99.1,0,20205,7.8,114278,175851,10.3
8400,849,1,81,99.1,0,19621,7.8,114392,176141,10.3
8410,850,1,81,99.1,0,19086,7.8,114468,176409,10.3
8420,851,1,81,99.1,0,18596,7.8,114581,176660,10.3
8430,852,1,81,99.1,0,18138,7.8,114663,176828,10.3
8440,853,1,81,99.1,0,17712,7.8,114704,176982,10.3
8450,854,1,81,99.1,0,17312,7.8,114699,177063,10.3
8460,855,1,81,99.1,0,16935,7.8,114639,176825,10.3
8470,856,1,81,99.1,0,16586,7.8,114374,176032,10.3
8480,857,1,81,99.1,0,16273,7.8,113767,174229,10.3
8490,858,1,81,99.1,0,16024,7.8,112941,171766,10.3
8500,859,1,81,99.1,0,15885,7.8,111884,168920,10.3
8510,860,1,81,99.1,0,15931,7.8,110885,166181,10.3
8520,861,1,81,99.1,0,16244,7.8,110105,164036,10.3
8530,862,1,81,99.1,0,16917,7.8,109505,162426,10.3
8540,863,1,81,99.1,0,18029,7.8,109065,161195,10.3
8550,864,1,81,99.1,0,19628,7.8,108748,160257,10.3
8560,865,1,81,99.1,0,21738,7.8,108500,159499,10.3
8570,866,1,81,99.1,0,24344,7.8,108253,158842,10.3
8580,867,1,81,99.1,0,27397,7.8,108063,158326,10.3
8590,868,1,81,99.1,0,30808,7.8,107918,157867,10.3
8600,869,1,81,99.1,0,34478,7.8,107780,157454,10.3
8610,870,1,81,99.1,0,38288,7.8,107650,157149,10.3
8620,871,1,81,99.1,0,42108,7.8,107575,156894,10.3
8630,872,1,81,99.1,0,45823,7.8,107505,156641,10.3
8640,873,1,81,99.1,0,49318,7.8,107432,156537,10.3
8650,874,1,81,99.1,0,52500,7.8,107422,156439,10.3
8660,875,1,81,99.1,0,55298,7.8,107424,156513,10.3
8670,876,1,81,99.1,0,57667,7.8,107500,156692,10.3
8680,877,1,81,99.1,0,59579,7.8,107624,157016,10.3
8690,878,1,81,99.1,0,61014,7.8,107786,157508,10.3
8700,879,1,81,99.1,0,61987,7.8,108044,158129,10.3
8710,880,1,81,99.1,0,62258,7.8,108271,158838,10.3
8720,881,1,81,99.1,0,62221,7.8,108520,159515,10.3
8730,882,1,81,99.1,8,61948,7.8,108790,160184,10.3
8740,883,1,81,99.1,0,61324,7.8,109024,160812,10.3
8750,884,1,81,99.1,0,60396,7.8,109216,161376,10.3
8760,885,1,81,99.1,0,59210,7.8,109419,161855,10.3
8770,886,1,81,99.1,0,57798,7.8,109553,162257,10.3
8780,887,1,81,99.1,0,56217,7.8,109715,162657,10.3
8790,888,1,81,99.1,0,54512,7.8,109819,162974,10.3
8800,889,1,81,99.1,0,52724,7.8,109930,163290,10.3
8810,890,1,81,99.1,0,50908,7.8,110061,163636,10.3
8820,891,1,81,99.1,0,49101,7.8,110190,163980,10.3
8830,892,1,81,99.1,0,47335,7.8,110333,164360,10.3
8840,893,1,81,99.1,0,45636,7.8,110460,164758,10.3
8850,894,1,81,99.1,0,44037,7.8,110635,165183,10.3
8860,895,1,81,99.1,0,42539,7.8,110792,165678,10.3
8870,896,1,81,99.1,0,41158,7.8,110961,166155,10.3
8880,897,1,81,99.1,0,39892,7.8,111120,166667,10.3
8890,898,1,81,99.1,0,38716,7.8,111324,167208,10.3
8900,899,1,81,99.1,0,37631,7.8,111485,167736,10.3
8910,900,1,81,99.1,0,36608,7.8,111693,168262,10.3
8920,901,1,81,99.1,0,35639,7.8,111893,168825,10.3
8930,902,1,81,99.1,0,34699,7.8,112067,169331,10.3
8940,903,1,81,99.1,0,33770,7.8,112232,169852,10.3
8950,904,1,81,99.1,0,32833,7.8,112394,170302,10.3
8960,905,1,81,99.1,0,31874,7.8,112570,170737,10.3
8970,906,1,81,99.1,0,30886,7.8,112732,171142,10.3
8980,907,1,81,99.1,0,29867,7.8,112870,171529,10.3
8990,908,1,81,99.1,0,28825,7.8,112988,171888,10.3
9000,909,1,81,99.1,0,27752,7.8,113118,172243,10.3
9010,910,1,81,99.1,0,26660,7.8,113233,172605,10.3
9020,911,1,81,99.1,0,25576,7.8,113336,172910,10.3
9030,912,1,81,99.1,0,24488,7.8,113463,173259,10.3
9040,913,1,81,99.1,0,23423,7.8,113562,173556,10.3
9050,914,1,81,99.1,0,22393,7.8,113676,173832,10.3
9060,915,1,81,99.1,0,21401,7.8,113791,174162,10.3
9070,916,1,81,99.1,0,20464,7.8,113904,174444,10.3
9080,917,1,81,99.1,0,19585,7.8,113995,174726,10.3
9090,918,1,81,99.1,0,18767,7.8,114088,174991,10.3
9100,919,1,81,99.1,0,18011,7.8,114187,175304,10.3
9110,920,1,81,99.1,0,17327,7.8,114291,175547,10.3
9120,921,1,81,99.1,0,16692,7.8,114398,175846,10.3
9130,922,1,81,99.1,0,16119,7.8,114479,176109,10.3
9140,923,1,81,99.1,0,15604,7.8,114565,176344,10.3
9150,924,1,81,99.1,0,15127,7.8,114657,176600,10.3
9160,925,1,81,99.1,0,14690,7.8,114746,176826,10.3
9170,926,1,81,99.1,0,14286,7.8,114829,177043,10.3
9180,927,1,81,99.1,0,13911,7.8,114835,177142,10.3
9190,928,1,81,99.1,0,13556,7.8,114804,177069,10.3
9200,929,1,81,99.1,0,13226,7.8,114677,176694,10.3
9210,930,1,81,99.1,0,12924,7.8,114253,175455,10.3
9220,931,1,81,99.1,0,12672,7.8,113526,173253,10.3
9230,932,1,81,99.1,0,12508,7.8,112547,170502,10.3
9240,933,1,81,99.1,0,12490,7.8,111491,167482,10.3
9250,934,1,81,99.1,0,12708,7.8,110501,164869,10.3
9260,935,1,81,99.1,0,13259,7.8,109775,162879,10.3
9270,936,1,81,99.1,0,14241,7.8,109260,161406,10.3
9280,937,1,81,99.1,0,15729,7.8,108867,160327,10.3
9290,938,1,81,99.1,0,17764,7.8,108539,159403,10.3
9300,939,1,81,99.1,0,20352,7.8,108309,158678,10.3
9310,940,1,81,99.1,0,23456,7.8,108098,158076,10.3
9320,941,1,81,99.1,0,27011,7.8,107905,157568,10.3
9330,942,1,81,99.1,0,30912,7.8,107766,157117,10.3
9340,943,1,81,99.1,0,35041,7.8,107658,156723,10.3
9350,944,1,81,99.1,0,39264,7.8,107515,156389,10.3
9360,945,1,81,99.1,0,43442,7.8,107406,156130,10.3
9370,946,1,81,99.1,0,47453,7.8,107333,155920,10.3
9380,947,1,81,99.1,0,51175,7.8,107275,155771,10.3
9390,948,1,81,99.1,0,54523,7.8,107246,155729,10.3
9400,949,1,81,99.1,0,57432,7.8,107290,155799,10.3
9410,950,1,81,99.1,0,59849,7.8,107350,156042,10.3
9420,951,1,81,99.1,0,61760,7.8,107511,156474,10.3
9430,952,1,81,99.1,0,62258,7.8,107692,157009,10.3
9440,953,1,81,99.1,0,62258,7.8,107948,157674,10.3
9450,954,1,81,99.1,0,62258,7.8,108196,158330,10.3
9460,955,1,81,99.1,0,62138,7.8,108434,159014,10.3
9470,956,1,81,99.1,8,61746,7.8,108666,159618,10.3
9480,957,1,81,99.1,0,61023,7.8,108871,160154,10.3
9490,958,1,81,99.1,0,60006,7.8,109024,160593,10.3
9500,959,1,81,99.1,0,58746,7.8,109170,160988,10.3
9510,960,1,81,99.1,0,57289,7.8,109261,161284,10.3
9520,961,1,81,99.1,0,55680,7.8,109380,161628,10.3
9530,962,1,81,99.1,0,53976,7.8,109513,161906,10.3
9540,963,1,81,99.1,0,52217,7.8,109620,162176,10.3
9550,964,1,81,99.1,0,50463,7.8,109716,162457,10.3
9560,965,1,81,99.1,0,48735,7.8,109802,162783,10.3
9570,966,1,81,99.1,0,47080,7.8,109918,163109,10.3
9580,967,1,81,99.1,0,45516,7.8,110072,163497,10.3
9590,968,1,81,99.1,0,44061,7.8,110190,163893,10.3
9600,969,1,81,99.1,0,42725,7.8,110366,164393,10.3
9610,970,1,81,99.1,0,41507,7.8,110544,164885,10.3
9620,971,1,81,99.1,0,40399,7.8,110719,165392,10.3
9630,972,1,81,99.1,0,39382,7.8,110902,165909,10.3
9640,973,1,81,99.1,0,38441,7.8,111100,166434,10.3
9650,974,1,81,99.1,0,37549,7.8,111292,166983,10.3
9660,975,1,81,99.1,0,36697,7.8,111484,167512,10.3
9670,976,1,81,99.1,0,35852,7.8,111667,168033,10.3
9680,977,1,81,99.1,0,34994,7.8,111860,168562,10.3
9690,978,1,81,99.1,0,34114,7.8,112033,169053,10.3
9700,979,1,81,99.1,0,33188,7.8,112184,169526,10.3
9710,980,1,81,99.1,0,32221,7.8,112352,169943,10.3
9720,981,1,81,99.1,0,31198,7.8,112508,170372,10.3
9730,982,1,81,99.1,0,30128,7.8,112638,170758,10.3
9740,983,1,81,99.1,0,29026,7.8,112754,171086,10.3
9750,984,1,81,99.1,0,27887,7.8,112875,171454,10.3
9760,985,1,81,99.1,0,26740,7.8,112991,171809,10.3
9770,986,1,81,99.1,0,25590,7.8,113127,172145,10.3
9780,987,1,81,99.1,0,24461,7.8,113243,172450,10.3
9790,988,1,81,99.1,0,23358,7.8,113356,172758,10.3
9800,989,1,81,99.1,0,22296,7.8,113458,173073,10.3
9810,990,1,81,99.1,0,21286,7.8,113564,173351,10.3
9820,991,1,81,99.1,0,20341,7.8,113648,173597,10.3
9830,992,1,81,99.1,0,19463,7.8,113729,173905,10.3
9840,993,1,81,99.1,0,18651,7.8,113832,174214,10.3
9850,994,1,81,99.1,0,17910,7.8,113947,174484,10.3
9860,995,1,81,99.1,0,17237,7.8,114066,174789,10.3
9870,996,1,81,99.1,0,16636,7.8,114197,175078,10.3
9880,997,1,81,99.1,0,16088,7.8,114282,175347,10.3
9890,998,1,81,99.1,0,15588,7.8,114334,175589,10.3
9900,999,1,81,99.1,0,15132,7.8,114406,175778,10.3
9910,1000,1,81,99.1,0,14715,7.8,114424,175857,10.3
9920,1001,1,81,99.1,0,14321,7.8,114398,175710,10.3
9930,1002,1,81,99.1,0,13962,7.8,114193,175072,10.3
9940,1003,1,81,99.1,0,13646,7.8,113636,173429,10.3
9950,1004,1,81,99.1,0,13384,7.8,112770,170995,10.3
9960,1005,1,81,99.1,0,13230,7.8,111733,168031,10.3
9970,1006,1,81,99.1,0,13251,7.8,110668,165085,10.3
9980,1007,1,81,99.1,0,13545,7.8,109753,162759,10.3
9990,1008,1,81,99.1,0,14212,7.8,109110,160997,10.3
10000,1009,1,81,99.1,0,15338,7.8,108636,159660,10.3
10010,1010,1,81,99.1,0,16994,7.8,108278,158627,10.3
10020,1011,1,81,99.1,0,19205,7.8,107982,157766,10.3
10030,1012,1,81,99.1,0,21964,7.8,107726,157033,10.3
10040,1013,1,81,99.1,0,25225,7.8,107492,156422,10.3
10050,1014,1,81,99.1,0,28899,7.8,107325,155953,10.3
10060,1015,1,81,99.1,0,32890,7.8,107170,155538,10.3
10070,1016,1,81,99.1,0,37065,7.8,107037,155136,10.3
10080,1017,1,81,99.1,0,41292,7.8,106924,154801,10.3
10090,1018,1,81,99.1,0,45433,7.8,106812,154526,10.3
10100,1019,1,81,99.1,0,49361,7.8,106743,154305,10.3
10110,1020,1,81,99.1,0,52974,7.8,106708,154207,10.3
10120,1021,1,81,99.1,0,56183,7.8,106700,154202,10.3
10130,1022,1,81,99.1,0,58943,7.8,106723,154246,10.3
10140,1023,1,81,99.1,0,61208,7.8,106784,154472,10.3
10150,1024,1,81,99.1,0,62258,7.8,106942,154852,10.3
10160,1025,1,81,99.1,0,62258,7.8,107143,155419,10.3
10170,1026,1,81,99.1,0,62258,7.8,107396,156122,10.3
10180,1027,1,81,99.1,0,62258,7.8,107645,156830,10.9
10190,1028,1,81,99.1,0,62123,7.8,107904,157533,10.9
10200,1029,1,81,99.1,8,61674,7.8,108152,158189,10.9
10210,1030,1,81,99.1,0,60916,7.8,108363,158774,10.9
10220,1031,1,81,99.1,0,59880,7.8,108552,159262,10.9
10230,1032,1,81,99.1,0,58613,7.8,108684,159672,10.9
10240,1033,1,81,99.1,0,57158,7.8,108807,159999,10.9
10250,1034,1,81,99.1,0,55565,7.8,108921,160310,10.9
10260,1035,1,81,99.1,0,53878,7.8,109028,160614,10.9
10270,1036,1,81,99.1,0,52138,7.8,109157,160878,10.9
10280,1037,1,81,99.1,0,50393,7.8,109234,161156,10.9
10290,1038,1,81,99.1,0,48674,7.8,109348,161499,10.9
10300,1039,1,81,99.1,0,47022,7.8,109470,161839,10.9
10310,1040,1,81,99.1,0,45453,7.8,109590,162199,10.9
10320,1041,1,81,99.1,0,43996,7.8,109737,162635,10.9
10330,1042,1,81,99.1,0,42645,7.8,109891,163093,10.9
10340,1043,1,81,99.1,0,41413,7.8,110083,163620,10.9
10350,1044,1,81,99.1,0,40293,7.8,110275,164163,10.9
10360,1045,1,81,99.1,0,39270,7.8,110432,164648,10.9
10370,1046,1,81,99.1,0,38317,7.8,110629,165231,10.9
10380,1047,1,81,99.1,0,37426,7.8,110823,165763,10.9
10390,1048,1,81,99.1,0,36568,7.8,111026,166319,10.9
10400,1049,1,81,99.1,0,35722,7.8,111215,166831,10.9
10410,1050,1,81,99.1,0,34868,7.8,111382,167346,10.9
10420,1051,1,81,99.1,0,33987,7.8,111553,167854,10.9
10430,1052,1,81,99.1,0,33067,7.8,111715,168338,10.9
10440,1053,1,81,99.1,0,32111,7.8,111861,168802,10.9
10450,1054,1,81,99.1,0,31100,7.8,112048,169245,10.9
10460,1055,1,81,99.1,0,30048,7.8,112195,169626,10.9
10470,1056,1,81,99.1,0,28955,7.8,112334,170042,10.9
10480,1057,1,81,99.1,0,27832,7.8,112453,170422,10.9
10490,1058,1,81,99.1,0,26695,7.8,112584,170772,10.9
10500,1059,1,81,99.1,0,25556,7.8,112718,171100,10.9
10510,1060,1,81,99.1,0,24432,7.8,112824,171375,10.9
10520,1061,1,81,99.1,0,23325,7.8,112926,171706,10.9
10530,1062,1,81,99.1,0,22262,7.8,113042,172054,10.9
10540,1063,1,81,99.1,0,21244,7.8,113156,172362,10.9
10550,1064,1,81,99.1,0,20290,7.8,113244,172649,10.9
10560,1065,1,81,99.1,0,19406,7.8,113364,172902,10.9
10570,1066,1,81,99.1,0,18586,7.8,113465,173218,10.9
10580,1067,1,81,99.1,0,17837,7.8,113559,173470,10.9
10590,1068,1,81,99.1,0,17157,7.8,113662,173746,10.9
10600,1069,1,81,99.1,0,16543,7.8,113774,174044,10.9
10610,1070,1,81,99.1,0,15990,7.8,113841,174276,10.9
10620,1071,1,81,99.1,0,15484,7.8,113945,174544,10.9
10630,1072,1,81,99.1,0,15029,7.8,114024,174821,10.9
10640,1073,1,81,99.1,0,14617,7.8,114102,175108,10.9
10650,1074,1,81,99.1,0,14234,7.8,114193,175328,10.9
10660,1075,1,81,99.1,0,13879,7.8,114256,175470,10.9
10670,1076,1,81,99.1,0,13543,7.8,114268,175554,10.9
10680,1077,1,81,99.1,0,13225,7.8,114212,175472,10.9
10690,1078,1,81,99.1,0,12922,7.8,114026,174940,10.9
10700,1079,1,81,99.1,0,12648,7.8,113555,173439,10.9
10710,1080,1,81,99.1,0,12426,7.8,112710,171014,10.9
10720,1081,1,81,99.1,0,12290,7.8,111669,168090,10.9
10730,1082,1,81,99.1,0,12320,7.8,110567,165070,10.9
10740,1083,1,81,99.1,0,12608,7.8,109653,162608,10.9
10750,1084,1,81,99.1,0,13244,7.8,108982,160743,10.9
10760,1085,1,81,99.1,0,14324,7.8,108476,159372,10.9
10770,1086,1,81,99.1,0,15915,7.8,108096,158276,10.9
10780,1087,1,81,99.1,0,18053,7.8,107790,157409,10.9
10790,1088,1,81,99.1,0,20734,7.8,107538,156648,10.9
10800,1089,1,81,99.1,0,23914,7.8,107308,156038,10.9
10810,1090,1,81,99.1,0,27524,7.8,107080,155477,10.9
10820,1091,1,81,99.1,0,31443,7.8,106960,155039,10.9
10830,1092,1,81,99.1,0,35565,7.8,106797,154652,10.9
10840,1093,1,81,99.1,0,39758,7.8,106685,154332,10.9
10850,1094,1,81,99.1,0,43884,7.8,106570,154027,10.9
10860,1095,1,81,99.1,0,47813,7.8,106505,153836,10.9
10870,1096,1,81,99.1,0,51445,7.8,106435,153674,10.9
10880,1097,1,81,99.1,0,54695,7.8,106407,153593,10.9
10890,1098,1,81,99.1,0,57502,7.8,106444,153656,10.9
10900,1099,1,81,99.1,0,59821,7.8,106491,153847,10.9
10910,1100,1,81,99.1,0,61647,7.8,106599,154203,10.9
10920,1101,1,81,99.1,0,62258,7.8,106805,154723,10.9
10930,1102,1,81,99.1,0,62258,7.8,107046,155373,10.9
10940,1103,1,81,99.1,0,62258,7.8,107292,156081,10.9
10950,1104,1,81,99.1,0,62181,7.8,107558,156740,10.9
10960,1105,1,81,99.1,8,61804,7.8,107809,157392,10.9
10970,1106,1,81,99.1,0,61102,7.8,108038,158017,10.9
10980,1107,1,81,99.1,0,60120,7.8,108214,158463,10.9
10990,1108,1,81,99.1,0,58899,7.8,108341,158879,10.9
11000,1109,1,81,99.1,0,57484,7.8,108505,159274,10.9
11010,1110,1,81,99.1,0,55920,7.8,108615,159581,10.9
11020,1111,1,81,99.1,0,54258,7.8,108710,159897,10.9
11030,1112,1,81,99.1,0,52537,7.8,108836,160183,10.9
11040,1113,1,81,99.1,0,50798,7.8,108940,160522,10.9
11050,1114,1,81,99.1,0,49081,7.8,109081,160836,10.9
11060,1115,1,81,99.1,0,47422,7.8,109196,161196,10.9
11070,1116,1,81,99.1,0,45838,7.8,109332,161582,10.9
11080,1117,1,81,99.1,0,44353,7.8,109487,162056,10.9
11090,1118,1,81,99.1,0,42976,7.8,109658,162509,10.9
11100,1119,1,81,99.1,0,41710,7.8,109824,162936,10.9
11110,1120,1,81,99.1,0,40543,7.8,110011,163503,10.9
11120,1121,1,81,99.1,0,39469,7.8,110191,164027,10.9
11130,1122,1,81,99.1,0,38471,7.8,110367,164493,10.9
11140,1123,1,81,99.1,0,37529,7.8,110560,165068,10.9
11150,1124,1,81,99.1,0,36622,7.8,110761,165629,10.9
11160,1125,1,81,99.1,0,35731,7.8,110958,166145,10.9
11170,1126,1,81,99.1,0,34836,7.8,111130,166659,10.9
11180,1127,1,81,99.1,0,33934,7.8,111300,167161,10.9
11190,1128,1,81,99.1,0,33000,7.8,111442,167599,10.9
11200,1129,1,81,99.1,0,32030,7.8,111634,168065,10.9
11210,1130,1,81,99.1,0,31023,7.8,111770,168467,10.9
11220,1131,1,81,99.1,0,29980,7.8,111921,168863,10.9
11230,1132,1,81,99.1,0,28901,7.8,112049,169242,10.9
11240,1133,1,81,99.1,0,27795,8.0,112120,169592,10.9
11250,1134,1,81,99.1,0,26676,8.0,112286,169926,10.9
11260,1135,1,81,99.1,0,25559,8.0,112409,170248,10.9
11270,1136,1,81,99.1,0,24458,8.0,112513,170584,10.9
11280,1137,1,81,99.1,0,23383,8.0,112647,170905,10.9
11290,1138,1,81,99.1,0,22353,8.0,112744,171198,10.9
11300,1139,1,81,99.1,0,21369,8.0,112855,171524,10.9
11310,1140,1,81,99.1,0,20440,8.0,112963,171804,10.9
11320,1141,1,81,99.1,0,19576,8.0,113078,172122,10.9
11330,1142,1,81,99.1,0,18777,8.0,113195,172396,10.9
11340,1143,1,81,99.1,0,18044,8.0,113215,172691,10.9
11350,1144,1,81,99.1,0,17372,8.0,113359,172974,10.9
11360,1145,1,81,99.1,0,16767,8.0,113462,173239,10.9
11370,1146,1,81,99.1,0,16209,8.0,113569,173523,10.9
11380,1147,1,81,99.1,0,15698,8.0,113678,173816,10.9
11390,1148,1,81,99.1,0,15225,8.0,113762,174097,10.9
11400,1149,1,81,99.1,0,14795,8.0,113870,174355,10.9
11410,1150,1,81,99.1,0,14389,8.0,113968,174624,10.9
11420,1151,1,81,99.1,0,14006,8.0,114032,174777,10.9
11430,1152,1,81,99.1,0,13643,8.0,114036,174874,10.9
11440,1153,1,81,99.1,0,13294,8.0,113955,174792,10.9
11450,1154,1,81,99.1,0,12959,8.0,113841,174293,10.9
11460,1155,1,81,99.1,0,12654,8.0,113361,172884,10.9
11470,1156,1,81,99.1,0,12401,8.0,112560,170564,10.9
11480,1157,1,81,99.1,0,12235,8.0,111577,167784,10.9
11490,1158,1,81,99.1,0,12217,8.0,110471,164836,10.9
11500,1159,1,81,99.1,0,12455,8.0,109575,162386,10.9
11510,1160,1,81,99.1,0,13035,8.0,108911,160517,10.9
11520,1161,1,81,99.1,0,14048,8.0,108393,159054,10.9
11530,1162,1,81,99.1,0,15573,8.0,107977,157964,10.9
11540,1163,1,81,99.1,0,17635,8.0,107683,157041,10.9
11550,1164,1,81,99.1,0,20240,8.0,107405,156270,10.9
11560,1165,1,81,99.1,0,23352,8.0,107210,155654,10.9
11570,1166,1,81,99.1,0,26898,8.0,107002,155128,10.9
11580,1167,1,81,99.1,0,30770,8.0,106863,154633,10.9
11590,1168,1,81,99.1,0,34856,8.0,106711,154231,10.9
11600,1169,1,81,99.1,0,39023,8.0,106600,153919,10.9
11610,1170,1,81,99.1,0,43143,8.0,106523,153647,10.9
11620,1171,1,81,99.1,0,47090,8.0,106416,153415,10.9
11630,1172,1,81,99.1,0,50751,8.0,106367,153247,10.9
11640,1173,1,81,99.1,0,54042,8.0,106333,153229,10.9
11650,1174,1,81,99.1,0,56891,8.0,106343,153266,10.9
11660,1175,1,81,99.1,0,59263,8.0,106406,153449,10.9
11670,1176,1,81,99.1,0,61137,8.0,106526,153769,10.9
11680,1177,1,81,99.1,0,62258,8.0,106706,154256,10.9
11690,1178,1,81,99.1,0,62258,8.0,106909,154868,10.9
11700,1179,1,81,99.1,0,62258,8.0,107138,155506,10.9
11710,1180,1,81,99.1,0,62193,8.0,107383,156144,10.9
11720,1181,1,81,99.1,8,61855,8.0,107599,156740,10.9
11730,1182,1,81,99.1,0,61195,8.0,107787,157282,10.9
11740,1183,1,81,99.1,0,60248,8.0,107936,157724,10.9
11750,1184,1,81,99.1,0,59058,8.0,108089,158104,10.9
11760,1185,1,81,99.1,0,57675,8.0,108200,158437,10.9
11770,1186,1,81,99.1,0,56150,8.0,108293,158739,10.9
11780,1187,1,81,99.1,0,54524,8.0,108399,158985,10.9
11790,1188,1,81,99.1,0,52843,8.0,108465,159195,10.9
11800,1189,1,81,99.1,0,51153,8.0,108593,159508,10.9
11810,1190,1,81,99.1,0,49490,8.0,108685,159799,10.9
11820,1191,1,81,99.1,0,47891,8.0,108771,160061,10.9
11830,1192,1,81,99.1,0,46374,8.0,108904,160433,10.9
11840,1193,1,81,99.1,0,44962,8.0,109030,160815,10.9
11850,1194,1,81,99.1,0,43660,8.0,109177,161247,10.9
11860,1195,1,81,99.1,0,42473,8.0,109338,161726,10.9
11870,1196,1,81,99.1,0,41391,8.0,109532,162237,10.9
11880,1197,1,81,99.1,0,40405,8.0,109724,162795,10.9
11890,1198,1,81,99.1,0,39496,8.0,109920,163349,10.9
11900,1199,1,81,99.1,0,38637,8.0,110127,163886,10.9
11910,1200,1,81,99.1,0,37808,8.0,110335,164445,10.9
11920,1201,1,81,99.1,0,36981,8.0,110555,165041,10.9
11930,1202,1,81,99.1,0,36142,8.0,110785,165606,10.9
11940,1203,1,81,99.1,0,35267,8.0,110980,166175,10.9
11950,1204,1,81,99.1,0,34342,8.0,111168,166688,10.9
11960,1205,1,81,99.1,0,33361,8.0,111349,167165,10.9
11970,1206,1,81,99.1,0,32315,8.0,111517,167659,10.9
11980,1207,1,81,99.1,0,31211,8.0,111714,168130,10.9
11990,1208,1,81,99.1,0,30052,8.0,111874,168590,10.9
12000,1209,1,81,99.1,0,28845,8.0,112012,168962,10.9
12010,1210,1,81,99.1,0,27605,8.0,112134,169313,10.9
12020,1211,1,81,99.1,0,26353,8.0,112247,169632,10.9
12030,1212,1,81,99.1,0,25092,8.0,112324,170010,10.9
12040,1213,1,81,99.1,0,23848,8.0,112458,170296,10.9
12050,1214,1,81,99.1,0,22645,8.0,112584,170599,10.9
12060,1215,1,81,99.1,0,21492,8.0,112686,170946,10.9
12070,1216,1,81,99.1,0,20400,8.0,112762,171195,10.9
12080,1217,1,81,99.1,0,19375,8.0,112835,171489,10.9
12090,1218,1,81,99.1,0,18430,8.0,112935,171700,10.9
12100,1219,1,81,99.1,0,17577,8.0,113029,171979,10.9
12110,1220,1,81,99.1,0,16810,8.0,113084,172259,10.9
12120,1221,1,81,99.1,0,16121,8.0,113196,172546,10.9
12130,1222,1,81,99.1,0,15508,8.0,113256,172797,10.9
12140,1223,1,81,99.1,0,14974,8.0,113351,173090,10.9
12150,1224,1,81,99.1,0,14497,8.0,113474,173394,10.9
12160,1225,1,81,99.1,0,14069,8.0,113567,173677,10.9
12170,1226,1,81,99.1,0,13690,8.0,113677,174015,10.9
12180,1227,1,81,99.2,0,13340,8.0,113812,174274,11.5
12190,1228,1,81,99.2,0,13015,8.0,113892,174506,11.5
12200,1229,1,81,99.2,0,12704,8.0,113943,174660,11.5
12210,1230,1,81,99.2,0,12398,8.0,113950,174676,11.5
12220,1231,1,81,99.2,0,12097,8.0,113886,174353,11.5
12230,1232,1,81,99.2,0,11806,8.0,113522,173282,11.5
12240,1233,1,81,99.2,0,11539,8.0,112831,171305,11.5
12250,1234,1,81,99.2,0,11332,8.0,111929,168666,11.5
12260,1235,1,81,99.2,0,11251,8.0,110913,165817,11.5
12270,1236,1,81,99.2,0,11377,8.0,109991,163296,11.5
12280,1237,1,81,99.2,0,11802,8.0,109253,161325,11.5
12290,1238,1,81,99.2,0,12630,8.0,108714,159769,11.5
12300,1239,1,81,99.2,0,13938,8.0,108321,158616,11.5
12310,1240,1,81,99.2,0,15778,8.0,107995,157674,11.5
12320,1241,1,81,99.2,0,18161,8.0,107745,156957,11.5
12330,1242,1,81,99.2,0,21059,8.0,107539,156291,11.5
12340,1243,1,81,99.2,0,24416,8.0,107358,155707,11.5
12350,1244,1,81,99.2,0,28137,8.0,107230,155324,11.5
12360,1245,1,81,99.2,0,32108,8.0,107093,154948,11.5
12370,1246,1,81,99.2,0,36208,8.0,106975,154639,11.5
12380,1247,1,81,99.2,0,40300,8.0,106883,154351,11.5
12390,1248,1,81,99.2,0,44263,8.0,106791,154117,11.5
12400,1249,1,81,99.2,0,47978,8.0,106731,153935,11.5
12410,1250,1,81,99.2,0,51351,8.0,106668,153827,11.5
12420,1251,1,81,99.2,0,54317,8.0,106693,153864,11.5
12430,1252,1,81,99.2,0,56817,8.0,106745,153984,11.5
12440,1253,1,81,99.2,0,58831,8.0,106848,154328,11.5
12450,1254,1,81,99.2,0,60348,8.0,106998,154762,11.5
12460,1255,1,81,99.2,0,61389,8.0,107209,155344,11.5
12470,1256,1,81,99.2,0,61969,8.0,107439,155987,11.5
12480,1257,1,81,99.2,0,62119,8.0,107697,156605,11.5
12490,1258,1,81,99.2,8,61875,8.0,107869,157192,11.5
12500,1259,1,81,99.2,0,61272,8.0,108092,157753,11.5
12510,1260,1,81,99.2,0,60356,8.0,108238,158211,11.5
12520,1261,1,81,99.2,0,59177,8.0,108397,158606,11.5
12530,1262,1,81,99.2,0,57785,8.0,108528,158982,11.5
12540,1263,1,81,99.2,0,56224,8.0,108612,159215,11.5
12550,1264,1,81,99.2,0,54540,8.0,108726,159539,11.5
12560,1265,1,81,99.2,0,52786,8.0,108820,159847,11.5
12570,1266,1,81,99.2,0,51012,8.0,108965,160120,11.5
12580,1267,1,81,99.2,0,49247,8.0,109057,160462,11.5
12590,1268,1,81,99.2,0,47537,8.0,109209,160813,11.5
12600,1269,1,81,99.2,0,45905,8.0,109322,161252,11.5
12610,1270,1,81,99.2,0,44376,8.0,109507,161619,11.5
12620,1271,1,81,99.2,0,42945,8.0,109649,162151,11.5
12630,1272,1,81,99.2,0,41633,8.0,109835,162625,11.5
12640,1273,1,81,99.2,0,40419,8.0,110041,163231,11.5
12650,1274,1,81,99.2,0,39292,8.0,110253,163717,11.5
12660,1275,1,81,99.2,0,38234,8.0,110469,164336,11.5
12670,1276,1,81,99.2,0,37228,8.0,110673,164908,11.5
12680,1277,1,81,99.2,0,36249,8.0,110905,165509,11.5
12690,1278,1,81,99.2,0,35278,8.0,111096,166082,11.5
12700,1279,1,81,99.2,0,34287,8.0,111334,166664,11.5
12710,1280,1,81,99.2,0,33263,8.0,111504,167185,11.5
12720,1281,1,81,99.2,0,32198,8.0,111700,167653,11.5
12730,1282,1,81,99.2,0,31073,8.0,111882,168148,11.5
12740,1283,1,81,99.2,0,29893,8.0,112025,168599,11.5
12750,1284,1,81,99.2,0,28662,8.0,112188,169054,11.5
12760,1285,1,81,99.2,0,27387,8.0,112316,169447,11.5
12770,1286,1,81,99.2,0,26076,8.0,112461,169836,11.5
12780,1287,1,81,99.2,0,24752,8.0,112611,170231,11.5
12790,1288,1,81,99.2,0,23430,8.0,112724,170578,11.5
12800,1289,1,81,99.2,0,22116,8.0,112869,170915,11.5
12810,1290,1,81,99.2,0,20836,8.0,112972,171255,11.5
12820,1291,1,81,99.2,0,19601,8.0,113087,171606,11.5
12830,1292,1,81,99.2,0,18431,8.0,113238,171946,11.5
12840,1293,1,81,99.2,0,17323,8.0,113341,172243,11.5
12850,1294,1,81,99.2,0,16298,8.0,113448,172518,11.5
12860,1295,1,81,99.2,0,15350,8.0,113540,172817,11.5
12870,1296,1,81,99.2,0,14490,8.0,113655,173101,11.5
12880,1297,1,81,99.2,0,13709,8.0,113742,173379,11.5
12890,1298,1,81,99.2,0,13006,8.0,113841,173634,11.5
12900,1299,1,81,99.2,0,12370,8.0,113947,173905,11.5
12910,1300,1,81,99.2,0,11803,8.0,113994,174163,11.5
12920,1301,1,81,99.2,0,11294,8.0,114084,174454,11.5
12930,1302,1,81,99.2,0,10832,8.0,114178,174694,11.5
12940,1303,1,81,99.2,0,10412,8.0,114282,174953,11.5
12950,1304,1,81,99.2,0,10030,8.0,114344,175171,11.5
12960,1305,1,81,99.2,0,9673,8.0,114417,175343,11.5
12970,1306,1,81,99.2,0,9338,8.0,114450,175472,11.5
12980,1307,1,81,99.2,0,9024,8.0,114406,175352,11.5
12990,1308,1,81,99.2,0,8732,8.0,114237,174882,11.5
13000,1309,1,81,99.2,0,8465,8.0,113753,173422,11.5
13010,1310,1,81,99.2,0,8257,8.0,112924,171106,11.5
13020,1311,1,81,99.2,0,8144,8.0,111936,168313,11.5
13030,1312,1,81,99.2,0,8210,8.0,110852,165383,11.5
13040,1313,1,81,99.2,0,8538,8.0,109928,162862,11.5
13050,1314,1,81,99.2,0,9240,8.0,109248,160989,11.5
13060,1315,1,81,99.2,0,10420,8.0,108717,159507,11.5
13070,1316,1,81,99.2,0,12142,8.0,108335,158342,11.5
13080,1317,1,81,99.2,0,14459,8.0,108005,157452,11.5
13090,1318,1,81,99.2,0,17368,8.0,107731,156656,11.5
13100,1319,1,81,99.2,0,20830,8.0,107512,156073,11.5
13110,1320,1,81,99.2,0,24757,8.0,107356,155551,11.5
13120,1321,1,81,99.2,0,29050,8.0,107208,155116,11.5
13130,1322,1,81,99.2,0,33564,8.0,107048,154742,11.5
13140,1323,1,81,99.2,0,38169,8.0,106966,154451,11.5
13150,1324,1,81,99.2,0,42717,8.0,106855,154145,11.5
13160,1325,1,81,99.2,0,47071,8.0,106763,154013,11.5
13170,1326,1,81,99.2,0,51103,8.0,106708,153904,11.5
13180,1327,1,81,99.2,0,54720,8.0,106693,153833,11.5
13190,1328,1,81,99.2,0,57848,8.0,106698,153881,11.5
13200,1329,1,81,99.2,0,60445,8.0,106777,154103,11.5
13210,1330,1,81,99.2,0,62258,8.0,106893,154422,11.5
13220,1331,1,81,99.2,0,62258,8.0,107051,154888,11.5
13230,1332,1,81,99.2,0,62258,8.0,107258,155421,11.5
13240,1333,1,81,99.2,0,62258,8.0,107449,155981,11.5
13250,1334,1,81,99.2,0,62229,8.0,107619,156534,11.5
13260,1335,1,81,99.2,8,61848,8.0,107812,157063,11.5
13270,1336,1,81,99.2,0,61141,8.0,107973,157553,11.5
13280,1337,1,81,99.2,0,60150,8.0,108091,157921,11.5
13290,1338,1,81,99.2,0,58924,8.0,108210,158258,11.5
13300,1339,1,81,99.2,0,57517,8.0,108336,158566,11.5
13310,1340,1,81,99.2,0,55981,8.0,108417,158819,11.5
13320,1341,1,81,99.2,0,54364,8.0,108482,159023,11.5
13330,1342,1,81,99.2,0,52708,8.0,108553,159188,11.5
13340,1343,1,81,99.2,0,51053,8.0,108614,159350,11.5
13350,1344,1,81,99.2,0,49450,8.0,108657,159506,11.5
13360,1345,1,81,99.2,0,47924,8.0,108728,159721,11.5
13370,1346,1,81,99.2,0,46503,8.0,108838,160014,11.5
13380,1347,1,81,99.2,0,45202,8.0,108942,160335,11.5
13390,1348,1,81,99.2,0,44020,8.0,109104,160762,11.5
13400,1349,1,81,99.2,0,42963,8.0,109267,161261,11.5
13410,1350,1,81,99.2,0,42020,8.0,109468,161828,11.5
13420,1351,1,81,99.2,0,41174,8.0,109695,162451,11.5
13430,1352,1,81,99.2,0,40403,8.0,109909,163070,11.5
13440,1353,1,81,99.2,0,39670,8.0,110132,163718,11.5
13450,1354,1,81,99.2,0,38945,8.0,110354,164337,11.5
13460,1355,1,81,99.2,0,38208,8.0,110544,164898,11.5
13470,1356,1,81,99.2,0,37424,8.0,110770,165461,11.5
13480,1357,1,81,99.2,0,36574,8.0,110932,166011,11.5
13490,1358,1,81,99.2,0,35637,8.0,111120,166462,11.5
13500,1359,1,81,99.2,0,34608,8.0,111288,166950,11.5
13510,1360,1,81,99.2,0,33491,8.0,111412,167372,11.5
13520,1361,1,81,99.2,0,32290,8.0,111562,167781,11.5
13530,1362,1,81,99.2,0,31010,8.0,111694,168180,11.5
13540,1363,1,81,99.2,0,29680,8.0,111861,168587,11.5
13550,1364,1,81,99.2,0,28316,8.0,111976,168990,11.5
13560,1365,1,81,99.2,0,26943,8.0,112137,169315,11.5
13570,1366,1,81,99.2,0,25576,8.0,112277,169721,11.5
13580,1367,1,81,99.2,0,24246,8.0,112427,170114,11.5
13590,1368,1,81,99.2,0,22958,8.0,112565,170449,11.5
13600,1369,1,81,99.2,0,21733,8.0,112685,170825,11.5
13610,1370,1,81,99.2,0,20582,8.0,112812,171174,11.5
13620,1371,1,81,99.2,0,19509,8.0,112932,171513,11.5
13630,1372,1,81,99.2,0,18521,8.0,113064,171826,11.5
13640,1373,1,81,99.2,0,17613,8.0,113236,172214,11.5
13650,1374,1,81,99.2,0,16779,8.0,113387,172513,11.5
13660,1375,1,81,99.2,0,16011,8.0,113546,172945,11.5
13670,1376,1,81,99.2,0,15309,8.0,113691,173281,11.5
13680,1377,1,81,99.2,0,14661,8.0,113866,173739,11.5
13690,1378,1,81,99.2,0,14054,8.0,114038,174065,11.5
13700,1379,1,81,99.2,0,13478,8.0,114185,174421,11.5
13710,1380,1,81,99.2,0,12921,8.0,114295,174696,11.5
13720,1381,1,81,99.2,0,12380,8.0,114359,174898,11.5
13730,1382,1,81,99.2,0,11849,8.0,114394,174956,11.5
13740,1383,1,81,99.2,0,11324,8.0,114315,174676,11.5
13750,1384,1,81,99.2,0,10819,8.0,114011,173772,11.5
13760,1385,1,81,99.2,0,10350,8.0,113367,171960,11.5
13770,1386,1,81,99.2,0,9947,8.0,112529,169557,11.5
13780,1387,1,81,99.2,0,9677,8.0,111560,166854,11.5
13790,1388,1,81,99.2,0,9616,8.0,110590,164238,11.5
13800,1389,1,81,99.2,0,9871,8.0,109811,162129,11.5
13810,1390,1,81,99.2,0,10539,8.0,109217,160540,11.5
13820,1391,1,81,99.2,0,11708,8.0,108772,159289,11.5
13830,1392,1,81,99.2,0,13432,8.0,108370,158248,11.5
13840,1393,1,81,99.2,0,15734,8.0,108069,157430,11.5
13850,1394,1,81,99.2,0,18586,8.0,107786,156757,11.5
13860,1395,1,81,99.2,0,21943,8.0,107603,156252,11.5
13870,1396,1,81,99.2,0,25706,8.0,107452,155794,11.5
13880,1397,1,81,99.2,0,29768,8.0,107323,155455,11.5
13890,1398,1,81,99.2,0,34004,8.0,107247,155214,11.5
13900,1399,1,81,99.2,0,38275,8.0,107169,155020,11.5
13910,1400,1,81,99.2,0,42439,8.0,107121,154894,11.5
13920,1401,1,81,99.2,0,46368,8.0,107075,154770,11.5
13930,1402,1,81,99.2,0,49960,8.0,107061,154772,11.5
13940,1403,1,81,99.2,0,53123,8.0,107098,154865,11.5
13950,1404,1,81,99.2,0,55803,8.0,107163,155116,11.5
13960,1405,1,81,99.2,0,57958,8.0,107327,155527,11.5
13970,1406,1,81,99.2,0,59582,8.0,107525,156080,11.5
13980,1407,1,81,99.2,0,60670,8.0,107790,156777,11.5
13990,1408,1,81,99.2,0,61248,8.0,108080,157555,11.5
14000,1409,1,81,99.2,0,61343,8.0,108380,158329,11.5
14010,1410,1,81,99.2,8,60982,8.0,108659,159022,11.5
14020,1411,1,81,99.2,0,60223,8.0,108886,159660,11.5
14030,1412,1,81,99.2,0,59106,8.0,109111,160259,11.5
14040,1413,1,81,99.2,0,57675,8.0,109287,160744,11.5
14050,1414,1,81,99.2,0,55996,8.0,109459,161152,11.5
14060,1415,1,81,99.2,0,54121,8.0,109595,161540,11.5
14070,1416,1,81,99.2,0,52112,8.0,109713,161875,11.5
14080,1417,1,81,99.2,0,50024,8.0,109833,162215,11.5
14090,1418,1,81,99.2,0,47904,8.0,109964,162554,11.5
14100,1419,1,81,99.2,0,45807,8.0,110063,162889,11.5
14110,1420,1,81,99.2,0,43771,8.0,110165,163221,11.5
14120,1421,1,81,99.2,0,41835,8.0,110321,163555,11.5
14130,1422,1,81,99.2,0,40026,8.0,110451,163898,11.5
14140,1423,1,81,99.2,0,38364,8.0,110599,164338,11.5
14150,1424,1,81,99.2,0,36850,8.0,110712,164740,11.5
14160,1425,1,81,99.2,0,35483,8.0,110872,165222,11.5
14170,1426,1,81,99.2,0,34254,8.0,111023,165671,11.5
14180,1427,1,80,99.2,0,33142,8.0,111186,166180,11.9
14190,1428,1,80,99.2,0,32137,8.0,111331,166669,11.9
14200,1429,1,80,99.2,0,31202,8.0,111472,167101,11.9
14210,1430,1,80,99.2,0,30317,8.0,111632,167550,11.9
14220,1431,1,80,99.2,0,29472,8.0,111744,167986,11.9
14230,1432,1,80,99.2,0,28629,8.0,111880,168372,11.9
14240,1433,1,80,99.2,0,27773,8.0,112021,168693,11.9
14250,1434,1,80,99.2,0,26898,8.0,112151,169150,11.9
14260,1435,1,80,99.2,0,25989,8.0,112274,169463,11.9
14270,1436,1,80,99.2,0,25056,8.0,112378,169865,11.9
14280,1437,1,80,99.2,0,24094,8.0,112519,170201,11.9
14290,1438,1,80,99.2,0,23114,8.0,112620,170574,11.9
14300,1439,1,80,99.2,0,22110,8.0,112744,170918,11.9
14310,1440,1,80,99.2,0,21110,8.0,112876,171268,11.9
14320,1441,1,80,99.2,0,20108,8.0,112984,171563,11.9
14330,1442,1,80,99.2,0,19126,8.0,113114,171896,11.9
14340,1443,1,80,99.2,0,18171,8.0,113235,172223,11.9
14350,1444,1,80,99.2,0,17247,8.0,113326,172548,11.9
14360,1445,1,80,99.2,0,16360,8.0,113449,172818,11.9
14370,1446,1,80,99.2,0,15521,8.0,113574,173165,11.9
14380,1447,1,80,99.2,0,14726,8.0,113702,173485,11.9
14390,1448,1,80,99.2,0,13979,8.0,113831,173790,11.9
14400,1449,1,80,99.2,0,13281,8.0,113965,174091,11.9
14410,1450,1,80,99.2,0,12626,8.0,114112,174428,11.9
14420,1451,1,80,99.2,0,12010,8.0,114195,174685,11.9
14430,1452,1,80,99.2,0,11431,8.0,114285,174943,11.9
14440,1453,1,80,99.2,0,10897,8.0,114396,175241,11.9
14450,1454,1,80,99.2,0,10384,8.0,114479,175445,11.9
14460,1455,1,80,99.2,0,9894,8.0,114543,175625,11.9
14470,1456,1,80,99.2,0,9431,8.0,114551,175727,11.9
14480,1457,1,80,99.2,0,8996,8.0,114485,175544,11.9
14490,1458,1,80,99.2,0,8583,8.0,114281,174933,11.9
14500,1459,1,80,99.2,0,8215,8.0,113724,173364,11.9
14510,1460,1,80,99.2,0,7922,8.0,112924,171014,11.9
14520,1461,1,80,99.2,0,7751,8.0,111890,168223,11.9
14530,1462,1,80,99.2,0,7782,8.0,110862,165386,11.9
14540,1463,1,80,99.2,0,8118,8.0,109942,163018,11.9
14550,1464,1,80,99.2,0,8876,7.6,109297,161242,11.9
14560,1465,1,80,99.2,0,10130,7.6,108783,159872,11.9
14570,1466,1,80,99.2,0,11969,7.6,108413,158820,11.9
14580,1467,1,80,99.2,0,14427,7.6,108090,157938,11.9
14590,1468,1,80,99.2,0,17484,7.6,107843,157264,11.9
14600,1469,1,80,99.2,0,21092,7.6,107676,156700,11.9
14610,1470,1,80,99.2,0,25158,7.6,107505,156233,11.9
14620,1471,1,80,99.2,0,29576,7.6,107377,155893,11.9
14630,1472,1,80,99.2,0,34197,7.6,107283,155654,11.9
14640,1473,1,80,99.2,0,38878,7.6,107228,155428,11.9
14650,1474,1,80,99.2,0,43472,7.6,107191,155318,11.9
14660,1475,1,80,99.2,0,47829,7.6,107181,155262,11.9
14670,1476,1,80,99.2,0,51813,7.6,107198,155260,11.9
14680,1477,1,80,99.2,0,55348,7.6,107232,155359,11.9
14690,1478,1,80,99.2,0,58354,7.6,107312,155598,11.9
14700,1479,1,80,99.2,0,60784,7.6,107468,155978,11.9
14710,1480,1,80,99.2,0,62258,7.6,107669,156525,11.9
14720,1481,1,80,99.2,0,62258,7.6,107915,157177,11.9
14730,1482,1,80,99.2,0,62258,7.6,108168,157884,11.9
14740,1483,1,80,99.2,0,62258,7.6,108417,158508,11.9
14750,1484,1,80,99.2,8,61925,7.6,108646,159191,11.9
14760,1485,1,80,99.2,0,61183,7.6,108835,159672,11.9
14770,1486,1,80,99.2,0,60083,7.6,108984,160122,11.9
14780,1487,1,80,99.2,0,58683,7.6,109121,160516,11.9
14790,1488,1,80,99.2,0,57044,7.6,109237,160816,11.9
14800,1489,1,80,99.2,0,55227,7.6,109294,161088,11.9
14810,1490,1,80,99.2,0,53293,7.6,109408,161362,11.9
14820,1491,1,80,99.2,0,51312,7.6,109489,161595,11.9
14830,1492,1,80,99.2,0,49321,7.6,109577,161841,11.9
14840,1493,1,80,99.2,0,47385,7.6,109663,162147,11.9
14850,1494,1,80,99.2,0,45544,7.6,109765,162421,11.9
14860,1495,1,80,99.2,0,43825,7.6,109886,162743,11.9
14870,1496,1,80,99.2,0,42248,7.6,110003,163131,11.9
14880,1497,1,80,99.2,0,40822,7.6,110151,163532,11.9
14890,1498,1,80,99.2,0,39543,7.6,110297,163992,11.9
14900,1499,1,80,99.2,0,38406,7.6,110473,164472,11.9
14910,1500,1,80,99.2,0,37396,7.6,110647,165001,11.9
14920,1501,1,80,99.2,0,36482,7.6,110863,165546,11.9
14930,1502,1,80,99.2,0,35638,7.6,111058,166112,11.9
14940,1503,1,80,99.2,0,34838,7.6,111296,166701,11.9
14950,1504,1,80,99.2,0,34051,7.6,111518,167273,11.9
14960,1505,1,80,99.2,0,33239,7.6,111734,167890,11.9
14970,1506,1,80,99.2,0,32388,7.6,111918,168371,11.9
14980,1507,1,80,99.2,0,31476,7.6,112120,168879,11.9
14990,1508,1,80,99.2,0,30497,7.6,112277,169375,11.9
15000,1509,1,80,99.2,0,29430,7.6,112464,169852,11.9
15010,1510,1,80,99.2,0,28290,7.6,112644,170268,11.9
15020,1511,1,80,99.2,0,27079,7.6,112762,170671,11.9
15030,1512,1,80,99.2,0,25805,7.6,112926,171054,11.9
15040,1513,1,80,99.2,0,24496,7.6,113052,171412,11.9
15050,1514,1,80,99.2,0,23153,7.6,113187,171736,11.9
15060,1515,1,80,99.2,0,21817,7.6,113287,172105,11.9
15070,1516,1,80,99.2,0,20506,7.6,113413,172401,11.9
15080,1517,1,80,99.2,0,19225,7.6,113539,172719,11.9
15090,1518,1,80,99.2,0,18007,7.6,113626,172993,11.9
15100,1519,1,80,99.2,0,16851,7.6,113731,173287,11.9
15110,1520,1,80,99.2,0,15786,7.6,113830,173577,11.9
15120,1521,1,80,99.2,0,14812,7.6,113888,173803,11.9
15130,1522,1,80,99.2,0,13923,7.6,113981,174055,11.9
15140,1523,1,80,99.2,0,13126,7.6,114018,174322,11.9
15150,1524,1,80,99.2,0,12425,7.6,114101,174555,11.9
15160,1525,1,80,99.2,0,11810,7.6,114143,174796,11.9
15170,1526,1,80,99.2,0,11266,7.6,114227,175030,11.9
15180,1527,1,80,99.2,0,10791,7.6,114256,175303,11.9
15190,1528,1,80,99.2,0,10377,7.6,114338,175554,11.9
15200,1529,1,80,99.2,0,10016,7.6,114397,175785,11.9
15210,1530,1,80,99.2,0,9693,7.6,114479,176002,11.9
15220,1531,1,80,99.2,0,9397,7.6,114504,176212,11.9
15230,1532,1,80,99.2,0,9118,7.6,114498,176254,11.9
15240,1533,1,80,99.2,0,8866,7.6,114455,176092,11.9
15250,1534,1,80,99.2,0,8630,7.6,114223,175431,11.9
15260,1535,1,80,99.2,0,8422,7.6,113648,173727,11.9
15270,1536,1,80,99.2,0,8267,7.6,112788,171262,11.9
15280,1537,1,80,99.2,0,8221,7.6,111771,168476,11.9
15290,1538,1,80,99.2,0,8364,7.6,110802,165752,11.9
15300,1539,1,80,99.2,0,8799,7.6,109986,163663,11.9
15310,1540,1,80,99.2,0,9629,7.6,109429,162036,11.9
15320,1541,1,80,99.2,0,10934,7.6,108992,160871,11.9
15330,1542,1,80,99.2,0,12796,7.6,108644,159889,11.9
15340,1543,1,80,99.2,0,15239,7.6,108381,159191,11.9
15350,1544,1,80,99.2,0,18241,7.6,108220,158612,11.9
15360,1545,1,80,99.2,0,21747,7.6,108050,158144,11.9
15370,1546,1,80,99.2,0,25667,7.6,107961,157827,11.9
15380,1547,1,80,99.2,0,29887,7.6,107852,157573,11.9
15390,1548,1,80,99.2,0,34264,7.6,107810,157404,11.9
15400,1549,1,80,99.2,0,38656,7.6,107775,157269,11.9
15410,1550,1,80,99.2,0,42923,7.6,107746,157247,11.9
15420,1551,1,80,99.2,0,46923,7.6,107774,157256,11.9
15430,1552,1,80,99.2,0,50554,7.6,107824,157336,11.9
15440,1553,1,80,99.2,0,53719,7.6,107895,157553,11.9
15450,1554,1,80,99.2,0,56356,7.6,108032,157923,11.9
15460,1555,1,80,99.2,0,58431,7.6,108260,158518,11.9
15470,1556,1,80,99.2,0,59931,7.6,108512,159204,11.9
15480,1557,1,80,99.2,0,60858,7.6,108818,159974,11.9
15490,1558,1,80,99.2,0,61234,7.6,109123,160833,11.9
15500,1559,1,80,99.2,0,61082,7.6,109425,161633,11.9
15510,1560,1,80,99.2,8,60458,7.6,109693,162332,11.9
15520,1561,1,80,99.2,0,59401,7.6,109984,163026,11.9
15530,1562,1,80,99.2,0,57955,7.6,110187,163611,11.9
15540,1563,1,80,99.2,0,56191,7.6,110407,164132,11.9
15550,1564,1,80,99.2,0,54176,7.6,110562,164635,11.9
15560,1565,1,80,99.2,0,51962,7.6,110747,165087,11.9
15570,1566,1,80,99.2,0,49622,7.6,110898,165507,11.9
15580,1567,1,80,99.2,0,47214,7.6,111050,165922,11.9
15590,1568,1,80,99.2,0,44798,7.6,111182,166359,11.9
15600,1569,1,80,99.2,0,42422,7.6,111326,166749,11.9
15610,1570,1,80,99.2,0,40129,7.6,111530,167236,11.9
15620,1571,1,80,99.2,0,37965,7.6,111659,167677,11.9
15630,1572,1,80,99.2,0,35938,7.6,111861,168134,11.9
15640,1573,1,80,99.2,0,34065,7.6,112027,168629,11.9
15650,1574,1,80,99.2,0,32348,7.6,112213,169058,11.9
15660,1575,1,80,99.2,0,30787,7.6,112367,169542,11.9
15670,1576,1,80,99.2,0,29371,7.6,112504,169962,11.9
15680,1577,1,80,99.2,0,28074,7.6,112703,170438,11.9
15690,1578,1,80,99.2,0,26880,7.6,112829,170838,11.9
15700,1579,1,80,99.2,0,25778,7.6,112997,171228,11.9
15710,1580,1,80,99.2,0,24742,7.6,113133,171658,11.9
15720,1581,1,80,99.2,0,23742,7.6,113279,172040,11.9
15730,1582,1,80,99.2,0,22775,7.6,113414,172364,11.9
15740,1583,1,80,99.2,0,21828,7.6,113532,172653,11.9
15750,1584,1,80,99.2,0,20890,7.6,113641,173026,11.9
15760,1585,1,80,99.2,0,19957,7.6,113764,173314,11.9
15770,1586,1,80,99.2,0,19035,7.6,113871,173675,11.9
15780,1587,1,80,99.2,0,18122,7.6,113960,173968,11.9
15790,1588,1,80,99.2,0,17214,7.6,114076,174270,11.9
15800,1589,1,80,99.2,0,16323,7.6,114197,174555,11.9
15810,1590,1,80,99.2,0,15454,7.6,114311,174866,11.9
15820,1591,1,80,99.2,0,14619,7.6,114385,175099,11.9
15830,1592,1,80,99.2,0,13806,7.6,114480,175369,11.9
15840,1593,1,80,99.2,0,13039,7.6,114561,175613,11.9
15850,1594,1,80,99.2,0,12317,7.6,114648,175890,11.9
15860,1595,1,80,99.2,0,11636,7.6,114731,176139,11.9
15870,1596,1,80,99.2,0,11001,7.6,114809,176352,11.9
15880,1597,1,80,99.2,0,10423,7.6,114912,176643,11.9
15890,1598,1,80,99.2,0,9886,7.6,115011,176878,11.9
15900,1599,1,80,99.2,0,9395,7.6,115098,177132,11.9
15910,1600,1,80,99.2,0,8938,7.6,115174,177368,11.9
15920,1601,1,80,99.2,0,8523,7.6,115267,177617,11.9
15930,1602,1,80,99.2,0,8142,7.6,115358,177832,11.9
15940,1603,1,80,99.2,0,7784,7.6,115430,178074,11.9
15950,1604,1,80,99.2,0,7455,7.6,115515,178269,11.9
15960,1605,1,80,99.2,0,7144,7.6,115572,178434,11.9
15970,1606,1,80,99.2,0,6856,7.6,115573,178471,11.9
15980,1607,1,80,99.2,0,6580,7.6,115533,178369,11.9
15990,1608,1,80,99.2,0,6322,7.6,115388,177964,11.9
16000,1609,1,80,99.2,0,6098,7.6,114995,176702,11.9
16010,1610,1,80,99.2,0,5932,7.6,114290,174715,11.9
16020,1611,1,80,99.2,0,5864,7.6,113473,172422,11.9
16030,1612,1,80,99.2,0,5969,7.6,112616,169987,11.9
16040,1613,1,80,99.2,0,6320,7.6,111791,167800,11.9
16050,1614,1,80,99.2,0,7028,7.6,111160,166032,11.9
16060,1615,1,80,99.2,0,8177,7.6,110686,164771,11.9
16070,1616,1,80,99.2,0,9842,7.6,110318,163889,11.9
16080,1617,1,80,99.2,0,12065,7.6,110097,163229,11.9
16090,1618,1,80,99.2,0,14841,7.6,109950,162782,11.9
16100,1619,1,80,99.2,0,18119,7.6,109825,162448,11.9
16110,1620,1,80,99.2,0,21823,7.6,109767,162192,11.9
16120,1621,1,80,99.2,0,25852,7.6,109690,162082,11.9
16130,1622,1,80,99.2,0,30060,7.6,109681,162029,11.9
16140,1623,1,80,99.2,0,34312,7.6,109707,162012,11.9
16150,1624,1,80,99.2,0,38474,7.6,109730,162102,11.9
16160,1625,1,80,99.2,0,42391,7.6,109791,162289,11.9
16170,1626,1,80,99.2,0,45954,7.6,109940,162612,11.9
16180,1627,1,80,99.2,0,49060,7.6,110106,163097,11.9
16190,1628,1,80,99.2,0,51626,7.6,110335,163743,11.9
16200,1629,1,80,99.2,0,53613,7.6,110601,164492,11.9
16210,1630,1,80,99.2,0,54998,7.6,110917,165308,11.9
16220,1631,1,80,99.2,0,55763,7.6,111190,166121,11.9
16230,1632,1,80,99.2,0,55925,7.6,111479,166835,11.9
16240,1633,1,80,99.2,8,55513,7.6,111720,167460,11.9
16250,1634,1,80,99.2,0,54576,7.6,111925,168040,11.9
16260,1635,1,80,99.2,0,53175,7.6,112087,168525,11.9
16270,1636,1,80,99.2,0,51389,7.6,112221,168937,11.9
16280,1637,1,80,99.2,0,49284,7.6,112376,169268,11.9
16290,1638,1,80,99.2,0,46956,7.6,112471,169569,11.9
16300,1639,1,80,99.2,0,44483,7.6,112573,169780,11.9
16310,1640,1,80,99.2,0,41947,7.6,112652,169994,11.9
16320,1641,1,80,99.2,0,39441,7.6,112713,170231,11.9
16330,1642,1,80,99.2,0,37023,7.6,112788,170400,11.9
16340,1643,1,80,99.2,0,34751,7.6,112860,170626,11.9
16350,1644,1,80,99.2,0,32678,7.6,112937,170785,11.9
16360,1645,1,80,99.2,0,30823,7.6,113013,171012,11.9
16370,1646,1,80,99.2,0,29206,7.6,113080,171246,11.9
16380,1647,1,80,99.2,0,27834,7.6,113197,171576,11.9
16390,1648,1,80,99.2,0,26703,7.6,113298,171887,11.9
16400,1649,1,80,99.2,0,25790,7.6,113437,172256,11.9
16410,1650,1,80,99.2,0,25067,7.6,113578,172633,11.9
16420,1651,1,80,99.2,0,24486,7.6,113732,173065,11.9
16430,1652,1,80,99.2,0,24011,7.6,113876,173480,11.9
16440,1653,1,80,99.2,0,23608,7.6,114024,173874,11.9
16450,1654,1,80,99.2,0,23240,7.6,114176,174278,11.9
16460,1655,1,80,99.2,0,22860,7.6,114275,174658,11.9
16470,1656,1,80,99.2,0,22436,7.6,114402,174993,11.9
16480,1657,1,80,99.2,0,21951,7.6,114549,175374,11.9
16490,1658,1,80,99.2,0,21387,7.6,114657,175673,11.9
16500,1659,1,80,99.2,0,20736,7.6,114737,175969,11.9
16510,1660,1,80,99.2,0,20006,7.6,114856,176233,11.9
16520,1661,1,80,99.2,0,19202,7.6,114929,176529,11.9
16530,1662,1,80,99.2,0,18331,7.6,115044,176777,11.9
16540,1663,1,80,99.2,0,17422,7.6,115119,177004,11.9
16550,1664,1,80,99.2,0,16481,7.6,115193,177240,11.9
16560,1665,1,80,99.2,0,15534,7.6,115267,177464,11.9
16570,1666,1,80,99.2,0,14605,7.6,115348,177701,11.9
16580,1667,1,80,99.2,0,13706,7.6,115422,177915,11.9
16590,1668,1,80,99.2,0,12856,7.6,115492,178141,11.9
16600,1669,1,80,99.2,0,12067,7.6,115552,178359,11.9
16610,1670,1,80,99.2,0,11352,7.6,115644,178580,11.9
16620,1671,1,80,99.2,0,10710,7.6,115707,178755,11.9
16630,1672,1,80,99.2,0,10136,7.6,115806,178999,11.9
16640,1673,1,80,99.2,0,9636,7.6,115864,179186,11.9
16650,1674,1,80,99.2,0,9203,7.6,115915,179382,11.9
16660,1675,1,80,99.2,0,8833,7.6,115969,179491,11.9
16670,1676,1,80,99.2,0,8517,7.6,115965,179479,11.9
16680,1677,1,80,99.2,0,8245,7.6,115861,179264,11.9
16690,1678,1,80,99.2,0,8028,7.6,115609,178431,11.9
16700,1679,1,80,99.2,0,7861,7.6,115002,176638,11.9
16710,1680,1,80,99.2,0,7780,7.6,114191,174205,11.9
16720,1681,1,80,99.2,0,7846,7.6,113229,171504,11.9
16730,1682,1,80,99.2,0,8139,7.6,112227,168799,11.9
16740,1683,1,80,99.2,0,8770,7.6,111383,166541,11.9
16750,1684,1,80,99.2,0,9855,7.6,110727,164867,11.9
16760,1685,1,80,99.2,0,11493,7.6,110268,163581,11.9
16770,1686,1,80,99.2,0,13752,7.6,109910,162571,11.9
16780,1687,1,80,99.2,0,16664,7.6,109606,161784,11.9
16790,1688,1,80,99.2,0,20208,7.6,109361,161141,11.9
16800,1689,1,80,99.2,0,24313,7.6,109134,160580,11.9
16810,1690,1,80,99.2,0,28892,7.6,108926,160057,11.9
16820,1691,1,80,99.2,0,33809,7.6,108765,159689,11.9
16830,1692,1,80,99.2,0,38905,7.6,108588,159338,11.9
16840,1693,1,80,99.2,0,44020,7.6,108469,159055,11.9
16850,1694,1,80,99.2,0,49006,7.6,108389,158839,11.9
16860,1695,1,80,99.2,0,53695,7.6,108321,158732,11.9
16870,1696,1,80,99.2,0,57985,7.6,108291,158702,11.9
16880,1697,1,80,99.2,0,61764,7.6,108337,158816,11.9
16890,1698,1,80,99.2,0,62258,7.6,108437,159111,11.9
16900,1699,1,80,99.2,0,62258,7.6,108587,159527,11.9
16910,1700,1,80,99.2,0,62258,7.6,108800,160100,11.9
16920,1701,1,80,99.2,0,62258,7.6,109011,160736,11.9
16930,1702,1,80,99.2,0,62258,7.6,109285,161385,11.9
16940,1703,1,80,99.2,0,62258,7.6,109535,162057,11.9
16950,1704,1,80,99.2,8,61966,7.6,109763,162678,11.9
16960,1705,1,80,99.2,0,61303,7.6,109986,163207,11.9
16970,1706,1,80,99.2,0,60316,7.6,110189,163712,11.9
16980,1707,1,80,99.2,0,59053,7.6,110364,164135,11.9
16990,1708,1,80,99.2,0,57570,7.6,110517,164539,11.9
17000,1709,1,80,99.2,0,55915,7.6,110628,164869,11.9
17010,1710,1,80,99.2,0,54138,7.6,110772,165175,11.9
17020,1711,1,80,99.2,0,52295,7.6,110898,165498,11.9
17030,1712,1,80,99.2,0,50443,7.6,111029,165845,11.9
17040,1713,1,80,99.2,0,48613,7.6,111143,166186,11.9
17050,1714,1,80,99.2,0,46848,7.6,111261,166507,11.9
17060,1715,1,80,99.2,0,45171,7.6,111422,166910,11.9
17070,1716,1,80,99.2,0,43605,7.6,111574,167360,11.9
17080,1717,1,80,99.2,0,42156,7.6,111756,167848,11.9
17090,1718,1,80,99.2,0,40827,7.6,111954,168348,11.9
17100,1719,1,80,99.2,0,39613,7.6,112136,168846,11.9
17110,1720,1,80,99.2,0,38497,7.6,112310,169338,11.9
17120,1721,1,80,99.2,0,37464,7.6,112538,169920,11.9
17130,1722,1,80,99.2,0,36495,7.6,112711,170423,11.9
17140,1723,1,80,99.2,0,35575,7.6,112897,170929,11.9
17150,1724,1,80,99.2,0,34671,7.6,113080,171412,11.9
17160,1725,1,80,99.2,0,33769,7.6,113233,171843,11.9
17170,1726,1,80,99.2,0,32849,7.6,113368,172243,11.9
17180,1727,1,80,99.2,0,31906,7.6,113517,172690,11.9
17190,1728,1,80,99.2,0,30930,7.6,113660,173037,11.9
17200,1729,1,80,99.2,0,29922,7.6,113752,173409,11.9
17210,1730,1,80,99.2,0,28881,7.6,113863,173760,11.9
17220,1731,1,80,99.2,0,27823,7.6,114000,174033,11.9
17230,1732,1,80,99.2,0,26751,7.6,114114,174333,11.9
17240,1733,1,80,99.2,0,25682,7.6,114173,174666,11.9
17250,1734,1,80,99.2,0,24629,7.6,114297,174964,11.9
17260,1735,1,80,99.2,0,23604,7.6,114392,175223,11.9
17270,1736,1,80,99.2,0,22615,7.6,114488,175520,11.9
17280,1737,1,80,99.2,0,21674,7.6,114554,175710,11.9
17290,1738,1,80,99.2,0,20795,7.6,114648,175989,11.9
17300,1739,1,80,99.2,0,19979,7.6,114747,176261,11.9
17310,1740,1,80,99.2,0,19230,7.6,114814,176530,11.9
17320,1741,1,80,99.2,0,18550,7.6,114907,176719,11.9
17330,1742,1,80,99.2,0,17933,7.6,114991,176987,11.9
17340,1743,1,80,99.2,0,17370,7.6,115054,177171,11.9
17350,1744,1,80,99.2,0,16871,7.6,115160,177487,11.9
17360,1745,1,80,99.2,0,16426,7.6,115243,177701,11.9
17370,1746,1,80,99.2,0,16025,7.6,115307,177938,11.9
17380,1747,1,80,99.2,0,15649,7.6,115359,178101,11.9
17390,1748,1,80,99.2,0,15302,7.6,115352,178122,11.9
17400,1749,1,80,99.2,0,14985,7.6,115298,178002,11.9
17410,1750,1,80,99.2,0,14693,7.6,115145,177455,11.9
17420,1751,1,80,99.2,0,14435,7.6,114640,175996,11.9
17430,1752,1,80,99.2,0,14232,7.6,113824,173660,11.9
17440,1753,1,80,99.2,0,14124,7.6,112821,170957,11.9
17450,1754,1,80,99.2,0,14175,7.6,111830,168179,11.9
17460,1755,1,80,99.2,0,14481,7.6,110927,165799,11.9
17470,1756,1,80,99.2,0,15131,7.6,110247,164004,11.9
17480,1757,1,80,99.2,0,16221,7.6,109773,162652,11.9
17490,1758,1,80,99.2,0,17812,7.6,109367,161608,11.9
17500,1759,1,80,99.2,0,19950,7.6,109103,160795,11.9
17510,1760,1,80,99.2,0,22618,7.6,108850,160139,11.9
17520,1761,1,80,99.2,0,25779,7.6,108706,159639,11.9
17530,1762,1,80,99.2,0,29350,7.6,108560,159230,11.9
17540,1763,1,80,99.2,0,33236,7.6,108435,158872,11.9
17550,1764,1,80,99.2,0,37313,7.6,108348,158630,11.9
17560,1765,1,80,99.2,0,41437,7.6,108266,158418,11.9
17570,1766,1,80,99.2,0,45474,7.6,108216,158243,11.9
17580,1767,1,80,99.2,0,49298,7.6,108186,158177,11.9
17590,1768,1,80,99.2,0,52800,7.6,108154,158143,11.9
17600,1769,1,80,99.2,0,55905,7.6,108162,158226,11.9
17610,1770,1,80,99.2,0,58536,7.6,108265,158476,11.9
17620,1771,1,80,99.2,0,60667,7.6,108423,158859,11.9
17630,1772,1,80,99.2,0,62258,7.6,108606,159349,11.9
17640,1773,1,80,99.2,0,62258,7.6,108866,160023,11.9
17650,1774,1,80,99.2,0,62258,7.6,109051,160684,11.9
17660,1775,1,80,99.2,0,62258,7.6,109359,161366,11.9
17670,1776,1,80,99.2,8,61942,7.6,109616,162032,11.9
17680,1777,1,80,99.2,0,61254,7.6,109827,162670,11.9
17690,1778,1,80,99.2,0,60232,7.6,110056,163216,11.9
17700,1779,1,80,99.2,0,58930,7.6,110238,163722,11.9
17710,1780,1,80,99.2,0,57395,7.6,110396,164171,11.9
17720,1781,1,80,99.2,0,55689,7.6,110531,164572,11.9
17730,1782,1,80,99.2,0,53859,7.6,110691,164969,11.9
17740,1783,1,80,99.2,0,51948,7.6,110837,165348,11.9
17750,1784,1,80,99.2,0,50008,7.6,110914,165711,11.9
17760,1785,1,80,99.2,0,48086,7.6,111080,166090,11.9
17770,1786,1,80,99.2,0,46215,7.6,111233,166482,11.9
17780,1787,1,80,99.2,0,44429,7.6,111362,166880,11.9
17790,1788,1,80,99.2,0,42741,7.6,111507,167290,11.9
17800,1789,1,80,99.2,0,41170,7.6,111641,167776,11.9
17810,1790,1,80,99.2,0,39711,7.6,111802,168229,11.9
17820,1791,1,80,99.2,0,38365,7.6,111967,168721,11.9
17830,1792,1,80,99.2,0,37127,7.6,112131,169163,11.9
17840,1793,1,80,99.2,0,35987,7.6,112303,169634,11.9
17850,1794,1,80,99.2,0,34925,7.8,112459,170131,11.9
17860,1795,1,80,99.2,0,33924,7.8,112646,170609,11.9
17870,1796,1,80,99.2,0,32963,7.8,112783,171034,11.9
17880,1797,1,80,99.2,0,32037,7.8,112962,171465,11.9
17890,1798,1,80,99.2,0,31122,7.8,113122,171897,11.9
17900,1799,1,80,99.2,0,30199,7.8,113271,172300,11.9
17910,1800,1,80,99.2,0,29268,7.8,113420,172649,11.9
17920,1801,1,80,99.2,0,28325,7.8,113535,173047,11.9
17930,1802,1,80,99.2,0,27363,7.8,113690,173380,11.9
17940,1803,1,80,99.2,0,26389,7.8,113766,173693,11.9
17950,1804,1,80,99.2,0,25413,7.8,113889,173986,11.9
17960,1805,1,80,99.2,0,24433,7.8,113978,174309,11.9
17970,1806,1,80,99.2,0,23467,7.8,114072,174542,11.9
17980,1807,1,80,99.2,0,22519,7.8,114132,174812,11.9
17990,1808,1,80,99.2,0,21604,7.8,114210,175081,11.9
18000,1809,1,80,99.2,0,20722,7.8,114297,175313,11.9
18010,1810,1,80,99.2,0,19894,7.8,114364,175559,11.9
18020,1811,1,80,99.2,0,19114,7.8,114450,175795,11.9
18030,1812,1,80,99.2,0,18394,7.8,114514,176045,11.9
18040,1813,1,80,99.2,0,17733,7.8,114608,176260,11.9
18050,1814,1,80,99.2,0,17132,7.8,114723,176538,11.9
18060,1815,1,80,99.2,0,16586,7.8,114801,176825,11.9
18070,1816,1,80,99.2,0,16099,7.8,114902,177067,11.9
18080,1817,1,80,99.2,0,15652,7.8,115024,177351,11.9
18090,1818,1,80,99.2,0,15251,7.8,115114,177573,11.9
18100,1819,1,80,99.2,0,14884,7.8,115208,177772,11.9
18110,1820,1,80,99.2,0,14548,7.8,115265,177974,11.9
18120,1821,1,80,99.2,0,14232,7.8,115258,177986,11.9
18130,1822,1,80,99.2,0,13925,7.8,115168,177770,11.9
18140,1823,1,80,99.2,0,13634,7.8,114924,177038,11.9
18150,1824,1,80,99.2,0,13378,7.8,114314,175259,11.9
18160,1825,1,80,99.2,0,13178,7.8,113419,172729,11.9
18170,1826,1,80,99.2,0,13094,7.8,112361,169809,11.9
18180,1827,1,80,99.2,0,13193,7.8,111278,166949,11.9
18190,1828,1,80,99.2,0,13575,7.8,110448,164712,11.9
18200,1829,1,80,99.2,0,14348,7.8,109789,163029,11.9
18210,1830,1,80,99.2,0,15607,7.8,109318,161723,11.9
18220,1831,1,80,99.2,0,17401,7.8,109012,160735,11.9
18230,1832,1,80,99.2,0,19766,7.8,108724,160019,11.9
18240,1833,1,80,99.2,0,22684,7.8,108551,159396,11.9
18250,1834,1,80,99.2,0,26098,7.8,108391,158931,11.9
18260,1835,1,80,99.2,0,29930,7.8,108239,158582,11.9
18270,1836,1,80,99.2,0,34052,7.8,108147,158298,11.9
18280,1837,1,80,99.2,0,38327,7.8,108059,158024,11.9
18290,1838,1,80,99.2,0,42614,7.8,108046,157864,11.9
18300,1839,1,80,99.2,0,46770,7.8,108006,157779,11.9
18310,1840,1,80,99.2,0,50662,7.8,108024,157776,11.9
18320,1841,1,80,99.2,0,54185,7.8,108034,157857,11.9
18330,1842,1,80,99.2,0,57259,7.8,108107,158017,11.9
18340,1843,1,80,99.2,0,59820,7.8,108232,158356,11.9
18350,1844,1,80,99.2,0,61831,7.8,108416,158844,11.9
18360,1845,1,80,99.2,0,62258,7.8,108631,159401,11.9
18370,1846,1,80,99.2,0,62258,7.8,108883,160095,11.9
18380,1847,1,80,99.2,0,62258,7.8,109144,160789,11.9
18390,1848,1,80,99.2,0,62148,7.8,109396,161443,11.9
18400,1849,1,80,99.2,8,61623,7.8,109614,162066,11.9
18410,1850,1,80,99.2,0,60722,7.8,109823,162620,11.9
18420,1851,1,80,99.2,0,59503,7.8,109992,163091,11.9
18430,1852,1,80,99.2,0,58027,7.8,110156,163538,11.9
18440,1853,1,80,99.2,0,56348,7.8,110290,163897,11.9
18450,1854,1,80,99.2,0,54517,7.8,110402,164129,11.9
18460,1855,1,80,99.2,0,52595,7.8,110506,164562,11.9
18470,1856,1,80,99.2,0,50650,7.8,110635,164885,11.9
18480,1857,1,80,99.2,0,48713,7.8,110768,165207,11.9
18490,1858,1,80,99.2,0,46837,7.8,110886,165554,11.9
18500,1859,1,80,99.2,0,45045,7.8,110998,165931,11.9
18510,1860,1,80,99.2,0,43371,7.8,111177,166309,11.9
18520,1861,1,80,99.2,0,41824,7.8,111338,166740,11.9
18530,1862,1,80,99.2,0,40408,7.8,111485,167199,11.9
18540,1863,1,80,99.2,0,39119,7.8,111665,167675,11.9
18550,1864,1,80,99.2,0,37953,7.8,111855,168187,11.9
18560,1865,1,80,99.2,0,36890,7.8,112043,168678,11.9
18570,1866,1,80,99.2,0,35916,7.8,112234,169235,11.9
18580,1867,1,80,99.2,0,34996,7.8,112435,169752,11.9
18590,1868,1,80,99.2,0,34113,7.8,112627,170283,11.9
18600,1869,1,80,99.2,0,33246,7.8,112813,170748,11.9
18610,1870,1,80,99.2,0,32375,7.8,112994,171186,11.9
18620,1871,1,80,99.2,0,31482,7.8,113141,171630,11.9
18630,1872,1,80,99.2,0,30560,7.8,113285,172001,11.9
18640,1873,1,80,99.2,0,29601,7.8,113398,172384,11.9
18650,1874,1,80,99.2,0,28605,7.8,113505,172676,11.9
18660,1875,1,80,99.2,0,27565,7.8,113653,173092,11.9
18670,1876,1,80,99.2,0,26508,7.8,113737,173377,11.9
18680,1877,1,80,99.2,0,25433,7.8,113851,173687,11.9
18690,1878,1,80,99.2,0,24361,7.8,113944,174016,11.9
18700,1879,1,80,99.2,0,23306,7.8,114056,174280,11.9
18710,1880,1,80,99.2,0,22284,7.8,114145,174540,11.9
18720,1881,1,80,99.2,0,21295,7.8,114234,174831,11.9
18730,1882,1,80,99.2,0,20363,7.8,114339,175121,11.9
18740,1883,1,80,99.2,0,19491,7.8,114424,175345,11.9
18750,1884,1,80,99.2,0,18677,7.8,114531,175633,11.9
18760,1885,1,80,99.2,0,17928,7.8,114625,175909,11.9
18770,1886,1,80,99.2,0,17248,7.8,114756,176238,11.9
18780,1887,1,80,99.2,0,16632,7.8,114843,176481,11.9
18790,1888,1,80,99.2,0,16077,7.8,114929,176704,11.9
18800,1889,1,80,99.2,0,15576,7.8,115018,176959,11.9
18810,1890,1,80,99.2,0,15120,7.8,115084,177141,11.9
18820,1891,1,80,99.2,0,14704,7.8,115117,177309,11.9
18830,1892,1,80,99.2,0,14323,7.8,115135,177339,11.9
18840,1893,1,80,99.2,0,13967,7.8,115073,177260,11.9
18850,1894,1,80,99.2,0,13646,7.8,114874,176628,11.9
18860,1895,1,80,99.2,0,13361,7.8,114353,175154,11.9
18870,1896,1,80,99.2,0,13136,7.8,113575,172958,11.9
18880,1897,1,80,99.2,0,13012,7.8,112667,170338,11.9
18890,1898,1,80,99.2,0,13060,7.8,111663,167703,11.9
18900,1899,1,80,99.2,0,13365,7.8,110796,165353,11.9
18910,1900,1,80,99.2,0,14020,7.8,110106,163578,11.9
18920,1901,1,80,99.2,0,15109,7.8,109621,162225,11.9
18930,1902,1,80,99.2,0,16700,7.8,109226,161213,11.9
18940,1903,1,80,99.2,0,18820,7.8,108940,160404,11.9
18950,1904,1,80,99.2,0,21481,7.8,108733,159751,11.9
18960,1905,1,80,99.2,0,24624,7.8,108525,159211,11.9
18970,1906,1,80,99.2,0,28177,7.8,108364,158769,11.9
18980,1907,1,80,99.2,0,32042,7.8,108260,158439,11.9
18990,1908,1,80,99.2,0,36096,7.8,108157,158159,11.9
19000,1909,1,80,99.2,0,40198,7.8,108054,157936,11.9
19010,1910,1,80,99.2,0,44228,7.8,108012,157800,11.9
19020,1911,1,80,99.2,0,48049,7.8,107997,157716,11.9
19030,1912,1,80,99.2,0,51564,7.8,107969,157685,11.9
19040,1913,1,80,99.2,0,54679,7.8,107998,157787,11.9
19050,1914,1,80,99.2,0,57336,7.8,108090,158000,11.9
19060,1915,1,80,99.2,0,59491,7.8,108231,158389,11.9
19070,1916,1,80,99.2,0,61124,7.8,108426,158931,11.9
19080,1917,1,80,99.2,0,62246,7.8,108684,159587,11.9
19090,1918,1,80,99.2,0,62258,7.8,108940,160320,11.9
19100,1919,1,80,99.2,0,62258,7.8,109209,161056,11.9
19110,1920,1,80,99.2,8,61957,7.8,109484,161739,11.9
19120,1921,1,80,99.2,0,61266,7.8,109708,162391,11.9
19130,1922,1,80,99.2,0,60221,7.8,109944,163006,11.9
19140,1923,1,80,99.2,0,58876,7.8,110125,163489,11.9
19150,1924,1,80,99.2,0,57283,7.8,110300,163973,11.9
19160,1925,1,80,99.2,0,55500,7.8,110447,164398,11.9
19170,1926,1,80,99.2,0,53568,7.8,110600,164778,11.9
19180,1927,1,80,99.2,0,51550,7.8,110736,165157,12.0
19190,1928,1,80,99.2,0,49492,7.8,110879,165556,12.0
19200,1929,1,80,99.2,0,47453,7.8,111045,165945,12.0
19210,1930,1,80,99.2,0,45457,7.8,111173,166350,12.0
19220,1931,1,80,99.2,0,43538,7.8,111345,166792,12.0
19230,1932,1,80,99.2,0,41722,7.8,111480,167235,12.0
19240,1933,1,80,99.2,0,40029,7.8,111667,167740,12.0
19250,1934,1,80,99.2,0,38458,7.8,111832,168240,12.0
19260,1935,1,80,99.2,0,37014,7.8,111989,168679,12.0
19270,1936,1,80,99.2,0,35688,7.8,112148,169164,12.0
19280,1937,1,80,99.2,0,34465,7.8,112348,169656,12.0
19290,1938,1,80,99.2,0,33329,7.8,112524,170151,12.0
19300,1939,1,80,99.2,0,32255,7.8,112679,170606,12.0
19310,1940,1,80,99.2,0,31228,7.8,112842,170971,12.0
19320,1941,1,80,99.2,0,30234,7.8,112964,171427,12.0
19330,1942,1,80,99.2,0,29252,7.8,113124,171844,12.0
19340,1943,1,80,99.2,0,28276,7.8,113272,172150,12.0
19350,1944,1,80,99.2,0,27303,7.8,113406,172514,12.0
19360,1945,1,80,99.2,0,26322,7.8,113547,172932,12.0
19370,1946,1,80,99.2,0,25329,7.8,113655,173230,12.0
19380,1947,1,80,99.2,0,24337,7.8,113766,173592,12.0
19390,1948,1,80,99.2,0,23349,7.8,113896,173899,12.0
19400,1949,1,80,99.2,0,22370,7.8,113997,174198,12.0
19410,1950,1,80,99.2,0,21404,7.8,114086,174472,12.0
19420,1951,1,80,99.2,0,20468,7.8,114207,174768,12.0
19430,1952,1,80,99.2,0,19556,7.8,114289,175071,12.0
19440,1953,1,80,99.2,0,18691,7.8,114370,175318,12.0
19450,1954,1,80,99.2,0,17871,7.8,114498,175579,12.0
19460,1955,1,80,99.2,0,17093,7.8,114576,175839,12.0
19470,1956,1,80,99.2,0,16366,7.8,114690,176125,12.0
19480,1957,1,80,99.2,0,15702,7.8,114772,176424,12.0
19490,1958,1,80,99.2,0,15085,7.8,114886,176657,12.0
19500,1959,1,80,99.2,0,14515,7.8,114945,176901,12.0
19510,1960,1,80,99.2,0,13986,7.8,115051,177147,12.0
19520,1961,1,80,99.2,0,13500,7.8,115148,177403,12.0
19530,1962,1,80,99.2,0,13061,7.8,115245,177603,12.0
19540,1963,1,80,99.2,0,12648,7.8,115287,177797,12.0
19550,1964,1,80,99.2,0,12267,7.8,115307,177901,12.0
19560,1965,1,80,99.2,0,11912,7.8,115280,177809,12.0
19570,1966,1,80,99.2,0,11584,7.8,115156,177451,12.0
19580,1967,1,80,99.2,0,11287,7.8,114767,176278,12.0
19590,1968,1,80,99.2,0,11043,7.8,114077,174334,12.0
19600,1969,1,80,99.2,0,10890,7.8,113224,171951,12.0
19610,1970,1,80,99.2,0,10884,7.8,112299,169432,12.0
19620,1971,1,80,99.2,0,11110,7.8,111451,167070,12.0
19630,1972,1,80,99.2,0,11665,7.8,110745,165190,12.0
19640,1973,1,80,99.2,0,12637,7.8,110192,163780,12.0
19650,1974,1,80,99.2,0,14091,7.8,109822,162744,12.0
19660,1975,1,80,99.2,0,16080,7.8,109534,161958,12.0
19670,1976,1,80,99.2,0,18602,7.8,109316,161375,12.0
19680,1977,1,80,99.2,0,21626,7.8,109161,160894,12.0
19690,1978,1,80,99.2,0,25080,7.8,109049,160546,12.0
19700,1979,1,80,99.2,0,28880,7.8,108929,160249,12.0
19710,1980,1,80,99.2,0,32895,7.8,108864,160024,12.0
19720,1981,1,80,99.2,0,36995,7.8,108813,159872,12.0
19730,1982,1,80,99.2,0,41037,7.8,108784,159818,12.0
19740,1983,1,80,99.2,0,44900,7.8,108794,159768,12.0
19750,1984,1,80,99.2,0,48468,7.8,108796,159856,12.0
19760,1985,1,80,99.2,0,51646,7.8,108886,160057,12.0
19770,1986,1,80,99.2,0,54363,7.8,109029,160362,12.0
19780,1987,1,80,99.2,0,56562,7.8,109199,160862,12.0
19790,1988,1,80,99.2,0,58227,7.8,109471,161565,12.0
19800,1989,1,80,99.2,0,59346,7.8,109737,162313,12.0
19810,1990,1,80,99.2,0,59932,7.8,110044,163130,12.0
19820,1991,1,80,99.2,0,60001,7.8,110338,163932,12.0
19830,1992,1,80,99.2,8,59591,7.8,110611,164655,12.0
19840,1993,1,80,99.2,0,58741,7.8,110874,165361,12.0
19850,1994,1,80,99.2,0,57493,7.8,111085,165968,12.0
19860,1995,1,80,99.2,0,55912,7.8,111290,166484,12.0
19870,1996,1,80,99.2,0,54047,7.8,111444,166912,12.0
19880,1997,1,80,99.2,0,51977,7.8,111605,167352,12.0
19890,1998,1,80,99.2,0,49756,7.8,111745,167743,12.0
19900,1999,1,80,99.2,0,47448,7.8,111897,168196,12.0
19910,2000,1,80,99.2,0,45109,7.8,112017,168540,12.0
19920,2001,1,80,99.2,0,42800,7.8,112176,168910,12.0
19930,2002,1,80,99.2,0,40567,7.8,112320,169318,12.0
19940,2003,1,80,99.2,0,38443,7.8,112463,169753,12.0
19950,2004,1,80,99.2,0,36459,7.8,112635,170163,12.0
19960,2005,1,80,99.2,0,34633,7.8,112789,170610,12.0
19970,2006,1,80,99.2,0,32964,7.8,112947,171042,12.0
19980,2007,1,80,99.2,0,31453,7.8,113085,171507,12.0
19990,2008,1,80,99.2,0,30095,7.8,113264,171928,12.0
20000,2009,1,80,99.2,0,28870,7.8,113388,172369,12.0
20010,2010,1,80,99.2,0,27757,7.8,113529,172727,12.0
20020,2011,1,80,99.2,0,26740,7.8,113676,173162,12.0
20030,2012,1,80,99.2,0,25786,7.8,113796,173525,12.0
20040,2013,1,80,99.2,0,24880,7.8,113941,173865,12.0
20050,2014,1,80,99.2,0,24010,7.8,114056,174213,12.0
20060,2015,1,80,99.2,0,23156,7.8,114184,174545,12.0
20070,2016,1,80,99.2,0,22310,7.8,114303,174848,12.0
20080,2017,1,80,99.2,0,21463,7.8,114409,175143,12.0
20090,2018,1,80,99.2,0,20620,7.8,114512,175432,12.0
20100,2019,1,80,99.2,0,19776,7.8,114620,175743,12.0
20110,2020,1,80,99.2,0,18931,7.8,114723,176035,12.0
20120,2021,1,80,99.2,0,18096,7.8,114827,176315,12.0
20130,2022,1,80,99.2,0,17272,7.8,114935,176573,12.0
20140,2023,1,80,99.2,0,16475,7.8,115044,176858,12.0
20150,2024,1,80,99.2,0,15710,7.8,115143,177132,12.0
20160,2025,1,80,99.2,0,14968,7.8,115229,177367,12.0
20170,2026,1,80,99.2,0,14265,7.8,115327,177650,12.0
20180,2027,1,80,99.2,0,13612,7.8,115413,177848,12.0
20190,2028,1,80,99.2,0,12987,7.8,115480,178089,12.0
20200,2029,1,80,99.2,0,12413,7.8,115557,178324,12.0
20210,2030,1,80,99.2,0,11873,7.8,115608,178571,12.0
20220,2031,1,80,99.2,0,11383,7.8,115745,178782,12.0
20230,2032,1,80,99.2,0,10938,7.8,115795,179001,12.0
20240,2033,1,80,99.2,0,10516,7.8,115841,179202,12.0
20250,2034,1,80,99.2,0,10140,7.8,115927,179402,12.0
20260,2035,1,80,99.2,0,9786,7.8,115933,179475,12.0
20270,2036,1,80,99.2,0,9466,7.8,115913,179381,12.0
20280,2037,1,80,99.2,0,9169,7.8,115768,179028,12.0
20290,2038,1,80,99.2,0,8912,7.8,115422,177871,12.0
20300,2039,1,80,99.2,0,8717,7.8,114719,175913,12.0
20310,2040,1,80,99.2,0,8618,7.8,113878,173516,12.0
20320,2041,1,80,99.2,0,8671,7.8,112922,170923,12.0
20330,2042,1,80,99.2,0,8973,7.8,112012,168479,12.0
20340,2043,1,80,99.2,0,9624,7.8,111262,166465,12.0
20350,2044,1,80,99.2,0,10716,7.8,110725,165029,12.0
20360,2045,1,80,99.2,0,12334,7.8,110308,163925,12.0
20370,2046,1,80,99.2,0,14517,7.8,110037,163132,12.0
20380,2047,1,80,99.2,0,17290,7.8,109796,162447,12.0
20390,2048,1,80,99.2,0,20604,7.8,109615,161990,12.0
20400,2049,1,80,99.2,0,24390,7.8,109478,161558,12.0
20410,2050,1,80,99.2,0,28543,7.8,109375,161309,12.0
20420,2051,1,80,99.2,0,32938,7.8,109310,161057,12.0
20430,2052,1,80,99.2,0,37435,7.8,109247,160866,12.0
20440,2053,1,80,99.2,0,41876,7.8,109185,160781,12.0
20450,2054,1,80,99.2,0,46125,7.8,109184,160740,12.0
20460,2055,1,80,99.2,0,50059,7.8,109178,160767,12.0
20470,2056,1,80,99.2,0,53564,7.8,109255,160965,12.0
20480,2057,1,80,99.2,0,56569,7.8,109366,161272,12.0
20490,2058,1,80,99.2,0,59020,7.8,109561,161763,12.0
20500,2059,1,80,99.2,0,60890,7.8,109771,162415,12.0
20510,2060,1,80,99.2,0,62171,7.8,110029,163098,12.0
20520,2061,1,80,99.2,0,62258,7.8,110306,163872,12.0
20530,2062,1,80,99.2,0,62258,7.8,110605,164603,12.0
20540,2063,1,80,99.2,8,61883,7.8,110804,165235,12.0
20550,2064,1,80,99.2,0,61056,7.8,111052,165842,12.0
20560,2065,1,80,99.2,0,59811,7.8,111218,166363,12.0
20570,2066,1,80,99.2,0,58216,7.8,111395,166769,12.0
20580,2067,1,80,99.2,0,56348,7.8,111536,167197,12.0
20590,2068,1,80,99.2,0,54263,7.8,111679,167539,12.0
20600,2069,1,80,99.2,0,52038,7.8,111800,167887,12.0
20610,2070,1,80,99.2,0,49741,7.8,111943,168200,12.0
20620,2071,1,80,99.2,0,47430,7.8,112041,168534,12.0
20630,2072,1,80,99.2,0,45168,7.8,112174,168903,12.0
20640,2073,1,80,99.2,0,42992,7.8,112294,169275,12.0
20650,2074,1,80,99.2,0,40947,7.8,112449,169670,12.0
20660,2075,1,80,99.2,0,39050,7.8,112596,170077,12.0
20670,2076,1,80,99.2,0,37323,7.8,112767,170507,12.0
20680,2077,1,80,99.2,0,35755,7.8,112901,170955,12.0
20690,2078,1,80,99.2,0,34346,7.8,113064,171394,12.0
20700,2079,1,80,99.2,0,33074,7.8,113237,171881,12.0
20710,2080,1,80,99.2,0,31929,7.8,113386,172337,12.0
20720,2081,1,80,99.2,0,30876,7.8,113560,172740,12.0
20730,2082,1,80,99.2,0,29894,7.8,113707,173182,12.0
20740,2083,1,80,99.2,0,28960,7.8,113853,173567,12.0
20750,2084,1,80,99.2,0,28047,7.8,114004,173941,12.0
20760,2085,1,80,99.2,0,27142,7.8,114112,174279,12.0
20770,2086,1,80,99.2,0,26223,7.8,114230,174613,12.0
20780,2087,1,80,99.2,0,25290,7.8,114335,174968,12.0
20790,2088,1,80,99.2,0,24337,7.8,114408,175271,12.0
20800,2089,1,80,99.2,0,23371,7.8,114564,175546,12.0
20810,2090,1,80,99.2,0,22380,7.8,114641,175828,12.0
20820,2091,1,80,99.2,0,21386,7.8,114754,176112,12.0
20830,2092,1,80,99.2,0,20397,7.8,114873,176352,12.0
20840,2093,1,80,99.2,0,19419,7.8,114937,176664,12.0
20850,2094,1,80,99.2,0,18480,7.8,115017,176905,12.0
20860,2095,1,80,99.2,0,17568,7.8,115132,177137,12.0
20870,2096,1,80,99.2,0,16703,7.8,115215,177430,12.0
20880,2097,1,80,99.2,0,15890,7.8,115307,177614,12.0
20890,2098,1,80,99.2,0,15134,7.8,115381,177917,12.0
20900,2099,1,80,99.2,0,14431,7.8,115478,178145,12.0
20910,2100,1,80,99.2,0,13786,7.8,115556,178379,12.0
20920,2101,1,80,99.2,0,13200,7.8,115666,178632,12.0
20930,2102,1,80,99.2,0,12666,7.8,115729,178859,12.0
20940,2103,1,80,99.2,0,12173,7.8,115783,179076,12.0
20950,2104,1,80,99.2,0,11728,7.8,115853,179204,12.0
20960,2105,1,80,99.2,0,11317,7.8,115875,179298,12.0
20970,2106,1,80,99.2,0,10942,7.8,115817,179215,12.0
20980,2107,1,80,99.2,0,10602,7.8,115671,178806,12.0
20990,2108,1,80,99.2,0,10298,7.8,115285,177610,12.0
21000,2109,1,80,99.2,0,10058,7.8,114559,175590,12.0
21010,2110,1,80,99.2,0,9919,7.8,113690,173121,12.0
21020,2111,1,80,99.2,0,9950,7.8,112698,170459,12.0
21030,2112,1,80,99.2,0,10239,7.8,111778,167987,12.0
21040,2113,1,80,99.2,0,10900,7.8,111042,166033,12.0
21050,2114,1,80,99.2,0,12042,7.8,110485,164570,12.0
21060,2115,1,80,99.2,0,13744,7.8,110082,163465,12.0
21070,2116,1,80,99.2,0,16054,7.8,109765,162599,12.0
21080,2117,1,80,99.2,0,18973,7.8,109525,161944,12.0
21090,2118,1,80,99.2,0,22469,7.8,109336,161380,12.0
21100,2119,1,80,99.2,0,26470,7.8,109156,160923,12.0
21110,2120,1,80,99.2,0,30856,7.8,109049,160531,12.0
21120,2121,1,80,99.2,0,35502,7.8,108922,160199,12.0
21130,2122,1,80,99.2,0,40258,7.8,108828,159952,12.0
21140,2123,1,80,99.2,0,44959,7.8,108764,159728,12.0
21150,2124,1,80,99.2,0,49464,7.8,108702,159556,12.0
21160,2125,1,80,99.2,0,53643,7.6,108687,159507,12.0
21170,2126,1,80,99.2,0,57397,7.6,108717,159561,12.0
21180,2127,1,81,99.1,0,60645,7.6,108803,159750,12.0
21190,2128,1,81,99.1,0,62258,7.6,108933,160119,12.0
21200,2129,1,81,99.1,0,62258,7.6,109091,160576,12.0
21210,2130,1,81,99.1,0,62258,7.6,109312,161226,12.0
21220,2131,1,81,99.1,0,62258,7.6,109563,161915,12.0
21230,2132,1,81,99.1,0,62258,7.6,109865,162653,12.0
21240,2133,1,81,99.1,0,62119,7.6,110094,163327,12.0
21250,2134,1,81,99.1,8,61583,7.6,110308,163970,12.0
21260,2135,1,81,99.1,0,60685,7.6,110516,164524,12.0
21270,2136,1,81,99.1,0,59476,7.6,110690,165014,12.0
21280,2137,1,81,99.1,0,58005,7.6,110855,165410,12.0
21290,2138,1,81,99.1,0,56328,7.6,110990,165831,12.0
21300,2139,1,81,99.1,0,54492,7.6,111125,166164,12.0
21310,2140,1,81,99.1,0,52552,7.6,111241,166532,12.0
21320,2141,1,81,99.1,0,50568,7.6,111351,166851,12.0
21330,2142,1,81,99.1,0,48587,7.6,111470,167213,12.0
21340,2143,1,81,99.1,0,46645,7.6,111593,167573,12.0
21350,2144,1,81,99.1,0,44785,7.6,111753,167912,12.0
21360,2145,1,81,99.1,0,43028,7.6,111891,168305,12.0
21370,2146,1,81,99.1,0,41387,7.6,112046,168776,12.0
21380,2147,1,81,99.1,0,39878,7.6,112189,169216,12.0
21390,2148,1,81,99.1,0,38501,7.6,112354,169682,12.0
21400,2149,1,81,99.1,0,37241,7.6,112517,170134,12.0
21410,2150,1,81,99.1,0,36098,7.6,112707,170653,12.0
21420,2151,1,81,99.1,0,35047,7.6,112855,171128,12.0
21430,2152,1,81,99.1,0,34064,7.6,113026,171578,12.0
21440,2153,1,81,99.1,0,33122,7.6,113180,172012,12.0
21450,2154,1,81,99.1,0,32208,7.6,113313,172394,12.0
21460,2155,1,81,99.1,0,31305,7.6,113478,172794,12.0
21470,2156,1,81,99.1,0,30398,7.6,113607,173158,12.0
21480,2157,1,81,99.1,0,29484,7.6,113743,173514,12.0
21490,2158,1,81,99.1,0,28551,7.6,113837,173875,12.0
21500,2159,1,81,99.1,0,27600,7.6,113970,174183,12.0
21510,2160,1,81,99.1,0,26631,7.6,114052,174472,12.0
21520,2161,1,81,99.1,0,25654,7.6,114175,174788,12.0
21530,2162,1,81,99.1,0,24680,7.6,114274,175081,12.0
21540,2163,1,81,99.1,0,23708,7.6,114374,175334,12.0
21550,2164,1,81,99.1,0,22755,7.6,114430,175604,12.0
21560,2165,1,81,99.1,0,21832,7.6,114545,175847,12.0
21570,2166,1,81,99.1,0,20954,7.6,114649,176117,12.0
21580,2167,1,81,99.1,0,20115,7.6,114750,176415,12.0
21590,2168,1,81,99.1,0,19333,7.6,114818,176666,12.0
21600,2169,1,81,99.1,0,18601,7.6,114898,176877,12.0
21610,2170,1,81,99.1,0,17926,7.6,115007,177132,12.0
21620,2171,1,81,99.1,0,17308,7.6,115081,177372,12.0
21630,2172,1,81,99.1,0,16741,7.6,115162,177598,12.0
21640,2173,1,81,99.1,0,16226,7.6,115256,177839,12.0
21650,2174,1,81,99.1,0,15758,7.6,115334,178068,12.0
21660,2175,1,81,99.1,0,15326,7.6,115420,178328,12.0
21670,2176,1,81,99.1,0,14925,7.6,115498,178510,12.0
21680,2177,1,81,99.1,0,14555,7.6,115553,178639,12.0
21690,2178,1,81,99.1,0,14217,7.6,115562,178650,12.0
21700,2179,1,81,99.1,0,13894,7.6,115472,178438,12.0
21710,2180,1,81,99.1,0,13598,7.6,115227,177731,12.0
21720,2181,1,81,99.1,0,13338,7.6,114682,176072,12.0
21730,2182,1,81,99.1,0,13141,7.6,113864,173832,12.0
21740,2183,1,81,99.1,0,13060,7.6,112964,171283,12.0
21750,2184,1,81,99.1,0,13167,7.6,111989,168681,12.0
21760,2185,1,81,99.1,0,13544,7.6,111151,166454,12.0
21770,2186,1,81,99.1,0,14299,7.6,110510,164735,12.0
21780,2187,1,81,99.1,0,15517,7.6,110010,163434,12.0
21790,2188,1,81,99.1,0,17259,7.6,109646,162444,12.0
21800,2189,1,81,99.1,0,19546,7.6,109390,161672,12.0
21810,2190,1,81,99.1,0,22375,7.6,109132,160981,12.0
21820,2191,1,81,99.1,0,25696,7.6,108943,160480,12.0
21830,2192,1,81,99.1,0,29430,7.6,108799,160028,12.0
21840,2193,1,81,99.1,0,33458,7.6,108681,159622,12.0
21850,2194,1,81,99.1,0,37666,7.6,108558,159286,12.0
21860,2195,1,81,99.1,0,41907,7.6,108463,159013,12.0
21870,2196,1,81,99.1,0,46055,7.6,108404,158821,12.0
21880,2197,1,81,99.1,0,49978,7.6,108339,158699,12.0
21890,2198,1,81,99.1,0,53577,7.6,108320,158629,12.0
21900,2199,1,81,99.1,0,56763,7.6,108364,158696,12.0
21910,2200,1,81,99.1,0,59476,7.6,108397,158920,12.0
21920,2201,1,81,99.1,0,61688,7.6,108573,159257,12.0
21930,2202,1,81,99.1,0,62258,7.6,108775,159846,12.0
21940,2203,1,81,99.1,0,62258,7.6,109005,160421,12.0
21950,2204,1,81,99.1,0,62258,7.6,109276,161181,12.0
21960,2205,1,81,99.1,0,62258,7.6,109543,161920,12.0
21970,2206,1,81,99.1,8,62006,7.6,109777,162500,12.0
21980,2207,1,81,99.1,0,61384,7.6,110022,163170,12.0
21990,2208,1,81,99.1,0,60428,7.6,110221,163725,12.0
22000,2209,1,81,99.1,0,59190,7.6,110401,164211,12.0
22010,2210,1,81,99.1,0,57715,7.6,110570,164628,12.0
22020,2211,1,81,99.1,0,56054,7.6,110672,165017,12.0
22030,2212,1,81,99.1,0,54254,7.6,110830,165366,12.0
22040,2213,1,81,99.1,0,52362,7.6,110950,165710,12.0
22050,2214,1,81,99.1,0,50435,7.6,111072,166033,12.0
22060,2215,1,81,99.1,0,48518,7.6,111192,166390,12.0
22070,2216,1,81,99.1,0,46648,7.6,111340,166744,12.0
22080,2217,1,81,99.1,0,44858,7.6,111459,167143,12.0
22090,2218,1,81,99.1,0,43167,7.6,111605,167594,12.0
22100,2219,1,81,99.1,0,41590,7.6,111772,168048,12.0
22110,2220,1,81,99.1,0,40137,7.6,111949,168487,12.0
22120,2221,1,81,99.1,0,38807,7.6,112107,168990,12.0
22130,2222,1,81,99.1,0,37587,7.6,112280,169455,12.0
22140,2223,1,81,99.1,0,36465,7.6,112479,169961,12.0
22150,2224,1,81,99.1,0,35424,7.6,112639,170435,12.0
22160,2225,1,81,99.1,0,34443,7.6,112794,170898,12.0
22170,2226,1,81,99.1,0,33503,7.6,112961,171320,12.0
22180,2227,1,81,99.1,0,32584,7.6,113127,171761,12.1
22190,2228,1,81,99.1,0,31666,7.6,113256,172128,12.1
22200,2229,1,81,99.1,0,30745,7.6,113403,172518,12.1
22210,2230,1,81,99.1,0,29806,7.6,113533,172897,12.1
22220,2231,1,81,99.1,0,28854,7.6,113654,173214,12.1
22230,2232,1,81,99.1,0,27884,7.6,113768,173535,12.1
22240,2233,1,81,99.1,0,26900,7.6,113873,173865,12.1
22250,2234,1,81,99.1,0,25915,7.6,113985,174122,12.1
22260,2235,1,81,99.1,0,24926,7.6,114095,174444,12.1
22270,2236,1,81,99.1,0,23956,7.6,114185,174733,12.1
22280,2237,1,81,99.1,0,23008,7.6,114306,175015,12.1
22290,2238,1,81,99.1,0,22094,7.6,114372,175323,12.1
22300,2239,1,81,99.1,0,21219,7.6,114489,175562,12.1
22310,2240,1,81,99.1,0,20388,7.6,114571,175827,12.1
22320,2241,1,81,99.1,0,19611,7.6,114673,176079,12.1
22330,2242,1,81,99.1,0,18883,7.6,114758,176295,12.1
22340,2243,1,81,99.1,0,18216,7.6,114816,176600,12.1
22350,2244,1,81,99.1,0,17598,7.6,114917,176891,12.1
22360,2245,1,81,99.1,0,17031,7.6,115038,177096,12.1
22370,2246,1,81,99.1,0,16514,7.6,115107,177339,12.1
22380,2247,1,81,99.1,0,16032,7.6,115195,177548,12.1
22390,2248,1,81,99.1,0,15591,7.6,115251,177798,12.1
22400,2249,1,81,99.1,0,15185,7.6,115376,177993,12.1
22410,2250,1,81,99.1,0,14799,7.6,115395,178072,12.1
22420,2251,1,81,99.1,0,14444,7.6,115412,178199,12.1
22430,2252,1,81,99.1,0,14109,7.6,115370,178116,12.1
22440,2253,1,81,99.1,0,13799,7.6,115204,177635,12.1
22450,2254,1,81,99.1,0,13520,7.6,114751,176362,12.1
22460,2255,1,81,99.1,0,13298,7.6,114039,174313,12.1
22470,2256,1,81,99.1,0,13167,7.6,113191,171951,12.1
22480,2257,1,81,99.1,0,13190,7.6,112276,169448,12.1
22490,2258,1,81,99.1,0,13448,7.6,111405,167106,12.1
22500,2259,1,81,99.1,0,14024,7.6,110681,165202,12.1
22510,2260,1,81,99.1,0,15010,7.6,110153,163799,12.1
22520,2261,1,81,99.1,0,16485,7.6,109739,162683,12.1
22530,2262,1,81,99.1,0,18479,7.6,109439,161813,12.1
22540,2263,1,81,99.1,0,20990,7.6,109175,161102,12.1
22550,2264,1,81,99.1,0,23994,7.6,108986,160555,12.1
22560,2265,1,81,99.1,0,27424,7.6,108805,160078,12.1
22570,2266,1,81,99.1,0,31184,7.6,108674,159686,12.1
22580,2267,1,81,99.1,0,35151,7.6,108564,159339,12.1
22590,2268,1,81,99.1,0,39213,7.6,108439,159041,12.1
22600,2269,1,81,99.1,0,43234,7.6,108371,158818,12.1
22610,2270,1,81,99.1,0,47090,7.6,108308,158668,12.1
22620,2271,1,81,99.1,0,50668,7.6,108286,158576,12.1
22630,2272,1,81,99.1,0,53889,7.6,108285,158546,12.1
22640,2273,1,81,99.1,0,56681,7.6,108344,158708,12.1
22650,2274,1,81,99.1,0,59002,7.6,108446,159028,12.1
22660,2275,1,81,99.1,0,60830,7.6,108643,159486,12.1
22670,2276,1,81,99.1,0,62150,7.6,108843,160117,12.1
22680,2277,1,81,99.1,0,62258,7.6,109082,160754,12.1
22690,2278,1,81,99.1,0,62258,7.6,109376,161460,12.1
22700,2279,1,81,99.1,0,62137,7.6,109602,162145,12.1
22710,2280,1,81,99.1,8,61666,7.6,109845,162764,12.1
22720,2281,1,81,99.1,0,60840,7.6,110048,163342,12.1
22730,2282,1,81,99.1,0,59704,7.6,110250,163853,12.1
22740,2283,1,81,99.1,0,58304,7.6,110402,164309,12.1
22750,2284,1,81,99.1,0,56694,7.6,110567,164688,12.1
22760,2285,1,81,99.1,0,54915,7.6,110683,165045,12.1
22770,2286,1,81,99.1,0,53032,7.6,110812,165397,12.1
22780,2287,1,81,99.1,0,51088,7.6,110936,165750,12.1
22790,2288,1,81,99.1,0,49128,7.6,111065,166120,12.1
22800,2289,1,81,99.1,0,47202,7.6,111207,166488,12.1
22810,2290,1,81,99.1,0,45340,7.6,111314,166890,12.1
22820,2291,1,81,99.1,0,43571,7.6,111484,167314,12.1
22830,2292,1,81,99.1,0,41910,7.6,111603,167760,12.1
22840,2293,1,81,99.1,0,40361,7.6,111799,168278,12.1
22850,2294,1,81,99.1,0,38936,7.6,111978,168753,12.1
22860,2295,1,81,99.1,0,37619,7.6,112163,169228,12.1
22870,2296,1,81,99.1,0,36410,7.6,112308,169716,12.1
22880,2297,1,81,99.1,0,35278,7.6,112508,170208,12.1
22890,2298,1,81,99.1,0,34219,7.6,112654,170653,12.1
22900,2299,1,81,99.1,0,33202,7.6,112837,171119,12.1
22910,2300,1,81,99.1,0,32218,7.6,113008,171570,12.1
22920,2301,1,81,99.1,0,31240,7.6,113151,171965,12.1
22930,2302,1,81,99.1,0,30263,7.6,113310,172373,12.1
22940,2303,1,81,99.1,0,29278,7.6,113459,172797,12.1
22950,2304,1,81,99.1,0,28279,7.6,113657,173320,12.1
22960,2305,1,81,99.1,0,27257,7.6,113923,173916,12.1
22970,2306,1,81,99.1,0,26211,7.6,114124,174482,12.1
22980,2307,1,81,99.1,0,25152,7.6,114348,175099,12.1
22990,2308,1,81,99.1,0,24074,7.6,114570,175614,12.1
23000,2309,1,81,99.1,0,22979,7.6,114734,176104,12.1
23010,2310,1,81,99.1,0,21861,7.6,114872,176427,12.1
23020,2311,1,81,99.1,0,20725,7.6,115069,176950,12.1
23030,2312,1,81,99.1,0,19583,7.6,115219,177317,12.1
23040,2313,1,81,99.1,0,18433,7.6,115363,177749,12.1
23050,2314,1,81,99.1,0,17293,7.6,115594,178183,12.1
23060,2315,1,81,99.1,0,16163,7.6,115567,178274,12.1
23070,2316,1,81,99.1,0,15053,7.6,115757,178740,12.1
23080,2317,1,81,99.1,0,13979,7.6,115830,178883,12.1
23090,2318,1,81,99.1,0,12952,7.6,115809,179038,12.1
23100,2319,1,81,99.1,0,11978,7.6,116045,179461,12.1
23110,2320,1,81,99.1,0,11078,7.6,115957,179447,12.1
23120,2321,1,81,99.1,0,10251,7.6,116060,179728,12.1
23130,2322,1,81,99.1,0,9510,7.6,116020,179693,12.1
23140,2323,1,81,99.1,0,8863,7.6,115912,179724,12.1
23150,2324,1,81,99.1,0,8307,7.6,115869,179758,12.1
23160,2325,1,81,99.1,0,7856,7.6,115826,179814,12.1
23170,2326,1,81,99.1,0,7501,7.6,115744,179752,12.1
23180,2327,1,81,99.1,0,7246,7.6,115543,179438,12.1
23190,2328,1,81,99.1,0,7092,7.6,115178,178593,12.1
23200,2329,1,81,99.1,0,7054,7.6,114524,176716,12.1
23210,2330,1,81,99.1,0,7142,7.6,113436,173870,12.1
23220,2331,1,81,99.1,0,7410,7.6,112053,170322,12.1
23230,2332,1,81,99.1,0,7930,7.6,110693,167114,12.1
23240,2333,1,81,99.1,0,8803,7.6,109983,165113,12.1
23250,2334,1,81,99.1,0,10130,7.6,109367,163454,12.1
23260,2335,1,81,99.1,0,11984,7.6,108884,162157,12.1
23270,2336,1,81,99.1,0,14436,7.6,108506,161093,12.1
23280,2337,1,81,99.1,0,17481,7.6,108208,160234,12.1
23290,2338,1,81,99.1,0,21096,7.6,107935,159513,12.1
23300,2339,1,81,99.1,0,25211,7.6,107729,158829,12.1
23310,2340,1,81,99.1,0,29714,7.6,107453,158201,12.1
23320,2341,1,81,99.1,0,34488,7.6,107271,157676,12.1
23330,2342,1,81,99.1,0,39392,7.6,107082,157237,12.1
23340,2343,1,81,99.1,0,44275,7.6,106900,156850,12.1
23350,2344,1,81,99.1,0,48989,7.6,106801,156491,12.1
23360,2345,1,81,99.1,0,53411,7.6,106689,156255,12.1
23370,2346,1,81,99.1,0,57431,7.6,106608,156058,12.1
23380,2347,1,81,99.1,0,60975,7.6,106569,155946,12.1
23390,2348,1,81,99.1,0,62258,7.6,106533,155867,12.1
23400,2349,1,81,99.1,0,62258,7.6,106547,156013,12.1
23410,2350,1,81,99.1,0,62258,7.6,106605,156185,12.1
23420,2351,1,81,99.1,0,62258,7.6,106713,156504,12.1
23430,2352,1,81,99.1,0,62258,7.6,106838,156814,12.1
23440,2353,1,81,99.1,0,62258,7.6,106974,157203,12.1
23450,2354,1,81,99.1,0,62208,7.6,107088,157560,12.1
23460,2355,1,81,99.1,8,61912,7.6,107210,157905,12.1
23470,2356,1,81,99.1,0,61378,7.6,107326,158202,12.1
23480,2357,1,81,99.1,0,60642,7.6,107398,158462,12.1
23490,2358,1,81,99.1,0,59752,7.6,107495,158686,12.1
23500,2359,1,81,99.1,0,58747,7.6,107585,158897,12.1
23510,2360,1,81,99.1,0,57657,7.6,107628,159054,12.1
23520,2361,1,81,99.1,0,56519,7.6,107721,159270,12.1
23530,2362,1,81,99.1,0,55365,7.6,107814,159461,12.1
23540,2363,1,81,99.1,0,54233,7.6,107872,159655,12.1
23550,2364,1,81,99.1,0,53129,7.6,107950,159860,12.1
23560,2365,1,81,99.1,0,52076,7.6,108019,160109,12.1
23570,2366,1,81,99.1,0,51080,7.6,108125,160349,12.1
23580,2367,1,81,99.1,0,50150,7.6,108226,160620,12.1
23590,2368,1,81,99.1,0,49286,7.6,108357,160981,12.1
23600,2369,1,81,99.1,0,48488,7.6,108504,161334,12.1
23610,2370,1,81,99.1,0,47747,7.6,108624,161776,12.1
23620,2371,1,81,99.1,0,47047,7.6,108790,162182,12.1
23630,2372,1,81,99.1,0,46375,7.6,108936,162657,12.1
23640,2373,1,81,99.1,0,45719,7.6,109148,163112,12.1
23650,2374,1,81,99.1,0,45066,7.6,109290,163563,12.1
23660,2375,1,81,99.1,0,44396,7.6,109734,164436,12.1
23670,2376,1,81,99.1,0,43695,7.6,109878,164941,12.1
23680,2377,1,81,99.1,0,42947,7.6,110259,165810,12.1
23690,2378,1,81,99.1,0,42143,7.6,110554,166541,12.1
23700,2379,1,81,99.1,0,41270,7.6,110937,167362,12.1
23710,2380,1,81,99.1,0,40315,7.6,111277,168125,12.1
23720,2381,1,81,99.1,0,39270,7.6,111632,168879,12.1
23730,2382,1,81,99.1,0,38137,7.6,111916,169543,12.1
23740,2383,1,81,99.1,0,36908,7.6,112164,170156,12.1
23750,2384,1,81,99.1,0,35603,7.6,112433,170695,12.1
23760,2385,1,81,99.1,0,34217,7.6,112675,171251,12.1
23770,2386,1,81,99.1,0,32767,7.6,112870,171690,12.1
23780,2387,1,81,99.1,0,31273,7.6,113047,172118,12.1
23790,2388,1,81,99.1,0,29760,7.6,113223,172537,12.1
23800,2389,1,81,99.1,0,28243,7.6,113351,172909,12.1
23810,2390,1,81,99.1,0,26751,7.6,113509,173287,12.1
23820,2391,1,81,99.1,0,25310,7.6,113670,173595,12.1
23830,2392,1,81,99.1,0,23931,7.6,113789,173930,12.1
23840,2393,1,81,99.1,0,22638,7.6,113923,174322,12.1
23850,2394,1,81,99.1,0,21438,7.6,114076,174654,12.1
23860,2395,1,81,99.1,0,20348,7.6,114168,174970,12.1
23870,2396,1,81,99.1,0,19364,7.6,114328,175305,12.1
23880,2397,1,81,99.1,0,18482,7.6,114440,175624,12.1
23890,2398,1,81,99.1,0,17703,7.6,114603,175909,12.1
23900,2399,1,81,99.1,0,17015,7.6,114680,176236,12.1
23910,2400,1,81,99.1,0,16416,7.6,114811,176440,12.1
23920,2401,1,81,99.1,0,15886,7.6,114886,176642,12.1
23930,2402,1,81,99.1,0,15426,7.6,114897,176793,12.1
23940,2403,1,81,99.1,0,15013,7.6,114898,176704,12.1
23950,2404,1,81,99.1,0,14647,7.6,114751,176355,12.1
23960,2405,1,81,99.1,0,14330,7.6,114354,175324,12.1
23970,2406,1,81,99.1,0,14077,7.6,113804,173666,12.1
23980,2407,1,81,99.1,0,13907,7.6,113056,171570,12.1
23990,2408,1,81,99.1,0,13854,7.6,112185,169283,12.1
24000,2409,1,81,99.1,0,13980,7.6,111307,167072,12.1
24010,2410,1,81,99.1,0,14359,7.6,110485,165086,12.1
24020,2411,1,81,99.1,0,15052,7.6,109755,163372,12.1
24030,2412,1,81,99.1,0,16120,7.6,109064,161843,12.1
24040,2413,1,81,99.1,0,17609,7.6,108379,160406,12.1
24050,2414,1,81,99.1,0,19532,7.6,107732,159111,12.1
24060,2415,1,81,99.1,0,21892,7.6,107403,158430,12.1
24070,2416,1,81,99.1,0,24660,7.6,107111,157687,12.1
24080,2417,1,81,99.1,0,27773,7.6,106904,157240,12.1
24090,2418,1,81,99.1,0,31151,7.6,106756,156864,12.1
24100,2419,1,81,99.1,0,34700,7.6,106630,156526,12.1
24110,2420,1,81,99.1,0,38314,7.6,106546,156290,12.1
24120,2421,1,81,99.1,0,41881,7.6,106391,155975,12.1
24130,2422,1,81,99.1,0,45300,7.6,106277,155735,12.1
24140,2423,1,81,99.1,0,48480,7.6,106191,155611,12.1
24150,2424,1,81,99.1,0,51342,7.6,106165,155528,12.1
24160,2425,1,81,99.1,0,53828,7.6,106167,155611,12.1
24170,2426,1,81,99.1,0,55909,7.6,106203,155799,12.1
24180,2427,1,81,99.1,0,57566,7.6,106297,156114,12.1
24190,2428,1,81,99.1,0,58791,7.6,106456,156499,12.1
24200,2429,1,81,99.1,0,59601,7.6,106605,156933,12.1
24210,2430,1,81,99.1,0,60010,7.6,106738,157369,12.1
24220,2431,1,81,99.1,0,60059,7.6,106894,157762,12.1
24230,2432,1,81,99.1,8,59783,7.6,107048,158111,12.1
24240,2433,1,81,99.1,0,59218,7.6,107164,158473,12.1
24250,2434,1,81,99.1,0,58410,7.6,107327,158798,12.1
24260,2435,1,81,99.1,0,57407,7.6,107444,159065,12.1
24270,2436,1,81,99.1,0,56254,7.6,107522,159256,12.1
24280,2437,1,81,99.1,0,54995,7.6,107588,159438,12.1
24290,2438,1,81,99.1,0,53674,7.6,107627,159531,12.1
24300,2439,1,81,99.1,0,52339,7.6,107651,159632,12.1
24310,2440,1,81,99.1,0,51023,7.6,107694,159805,12.1
24320,2441,1,81,99.1,0,49746,7.6,107760,159984,12.1
24330,2442,1,81,99.1,0,48540,7.6,107849,160224,12.1
24340,2443,1,81,99.1,0,47423,7.6,108212,160911,12.1
24350,2444,1,81,99.1,0,46403,7.6,108244,161215,12.1
24360,2445,1,81,99.1,0,45471,7.6,108431,161600,12.1
24370,2446,1,81,99.1,0,44628,7.6,108550,162062,12.1
24380,2447,1,81,99.1,0,43851,7.6,108742,162501,12.1
24390,2448,1,81,99.1,0,43126,7.6,108843,162923,12.1
24400,2449,1,81,99.1,0,42437,7.6,109053,163342,12.1
24410,2450,1,81,99.1,0,41754,7.6,109179,163816,12.1
24420,2451,1,81,99.1,0,41066,7.6,109383,164269,12.1
24430,2452,1,81,99.1,0,40358,7.6,109763,165130,12.1
24440,2453,1,81,99.1,0,39612,7.6,109819,165401,12.1
24450,2454,1,81,99.1,0,38819,7.6,110071,166089,12.1
24460,2455,1,81,99.1,0,37964,7.6,110374,166698,12.1
24470,2456,1,81,99.1,0,37047,7.6,110610,167307,12.1
24480,2457,1,81,99.1,0,36059,7.6,110938,168072,12.1
24490,2458,1,81,99.1,0,35004,7.6,111238,168701,12.1
24500,2459,1,81,99.1,0,33876,7.6,111529,169379,12.1
24510,2460,1,81,99.1,0,32680,7.6,111767,169935,12.1
24520,2461,1,81,99.1,0,31419,7.6,111999,170455,12.1
24530,2462,1,81,99.1,0,30107,7.6,112185,170896,12.1
24540,2463,1,81,99.1,0,28755,7.6,112356,171347,12.1
24550,2464,1,81,99.1,0,27370,7.6,112543,171766,12.1
24560,2465,1,81,99.1,0,25981,7.6,112712,172231,12.1
24570,2466,1,81,99.1,0,24598,7.6,112877,172563,12.1
24580,2467,1,81,99.1,0,23240,7.6,113043,173004,12.1
24590,2468,1,81,99.1,0,21930,7.6,113216,173372,12.1
24600,2469,1,81,99.1,0,20669,7.6,113369,173758,12.1
24610,2470,1,81,99.1,0,19476,7.6,113517,174143,12.1
24620,2471,1,81,99.1,0,18366,7.6,113680,174501,12.1
24630,2472,1,81,99.1,0,17329,7.6,113805,174825,12.1
24640,2473,1,81,99.1,0,16371,7.6,113935,175162,12.1
24650,2474,1,81,99.1,0,15496,7.6,114092,175522,12.1
24660,2475,1,81,99.1,0,14705,7.6,114229,175813,12.1
24670,2476,1,81,99.1,0,13984,7.6,114349,176139,12.1
24680,2477,1,81,99.1,0,13334,7.6,114446,176392,12.1
24690,2478,1,81,99.1,0,12744,7.6,114528,176564,12.1
24700,2479,1,81,99.1,0,12206,7.6,114562,176651,12.1
24710,2480,1,81,99.1,0,11715,7.6,114513,176578,12.1
24720,2481,1,81,99.1,0,11276,7.6,114368,176140,12.1
24730,2482,1,81,99.1,0,10893,7.6,113965,174919,12.1
24740,2483,1,81,99.1,0,10581,7.6,113342,173132,12.1
24750,2484,1,81,99.1,0,10373,7.6,112580,171004,12.1
24760,2485,1,81,99.1,0,10320,7.6,111793,168766,12.1
24770,2486,1,81,99.1,0,10488,7.6,111027,166880,12.1
24780,2487,1,81,99.1,0,10948,7.6,110455,165312,12.1
24790,2488,1,81,99.1,0,11761,7.6,110008,164089,12.1
24800,2489,1,81,99.1,0,12985,7.6,109637,163106,12.1
24810,2490,1,81,99.1,0,14647,7.6,109328,162330,12.1
24820,2491,1,81,99.1,0,16740,7.6,109120,161715,12.1
24830,2492,1,81,99.1,0,19237,7.6,108935,161210,12.1
24840,2493,1,81,99.1,0,22077,7.6,108808,160846,12.1
24850,2494,1,81,99.1,0,25189,7.6,108683,160470,12.1
24860,2495,1,81,99.1,0,28470,7.6,108601,160161,12.1
24870,2496,1,81,99.1,0,31819,7.6,108546,160073,12.1
24880,2497,1,81,99.1,0,35138,7.6,108482,159962,12.1
24890,2498,1,81,99.1,0,38324,7.6,108475,159864,12.1
24900,2499,1,81,99.1,0,41290,7.6,108475,159908,12.1
24910,2500,1,81,99.1,0,43951,7.6,108511,160020,12.1
24920,2501,1,81,99.1,0,46256,7.6,108608,160299,12.1
24930,2502,1,81,99.1,0,48171,7.6,108783,160733,12.1
24940,2503,1,81,99.1,0,49669,7.6,109025,161363,12.1
24950,2504,1,81,99.1,0,50736,7.6,109314,162102,12.1
24960,2505,1,81,99.1,0,51385,7.6,109579,162692,12.1
24970,2506,1,81,99.1,0,51615,7.6,109841,163510,12.1
24980,2507,1,81,99.1,0,51455,7.6,110118,164222,12.1
24990,2508,1,81,99.1,8,50934,7.6,110358,164837,12.1
25000,2509,1,81,99.1,0,50089,7.6,110561,165364,12.1
25010,2510,1,81,99.1,0,48954,7.6,110769,165917,12.1
25020,2511,1,81,99.1,0,47567,7.6,110947,166315,12.1
25030,2512,1,81,99.1,0,45990,7.6,111097,166807,12.1
25040,2513,1,81,99.1,0,44275,7.6,111279,167162,12.1
25050,2514,1,81,99.1,0,42460,7.6,111440,167633,12.1
25060,2515,1,81,99.1,0,40598,7.6,111592,168062,12.1
25070,2516,1,81,99.1,0,38736,7.6,111747,168496,12.1
25080,2517,1,81,99.1,0,36912,7.6,111924,168943,12.1
25090,2518,1,81,99.1,0,35156,7.6,112106,169368,12.1
25100,2519,1,81,99.1,0,33491,7.6,112287,169898,12.1
25110,2520,1,81,99.1,0,31938,7.6,112452,170331,12.1
25120,2521,1,81,99.1,0,30497,7.6,112642,170843,12.1
25130,2522,1,81,99.1,0,29164,7.6,112824,171331,12.1
25140,2523,1,81,99.1,0,27935,7.6,112994,171761,12.1
